id,channel_0_P,channel_0_QRS,channel_0_T,channel_0_RR,channel_1_P,channel_1_QRS,channel_1_T,channel_1_RR,channel_2_P,channel_2_QRS,channel_2_T,channel_2_RR,channel_3_P,channel_3_QRS,channel_3_T,channel_3_RR,channel_4_P,channel_4_QRS,channel_4_T,channel_4_RR,channel_5_P,channel_5_QRS,channel_5_T,channel_5_RR,channel_6_P,channel_6_QRS,channel_6_T,channel_6_RR,channel_7_P,channel_7_QRS,channel_7_T,channel_7_RR,channel_8_P,channel_8_QRS,channel_8_T,channel_8_RR,channel_9_P,channel_9_QRS,channel_9_T,channel_9_RR,channel_10_P,channel_10_QRS,channel_10_T,channel_10_RR,channel_11_P,channel_11_QRS,channel_11_T,channel_11_RR
A00002,"[130, 561, 978, 1393, 1791, 2198, 2612, 3034, 3446, 3869, 4312, 4757, 5186, 5626]","[205, 634, 1054, 1468, 1865, 2274, 2688, 3109, 3520, 3945, 4388, 4830, 5260, 5702]","[313, 743, 1160, 1574, 1972, 2381, 2795, 3216, 3628, 4053, 4496, 4938, 5368, 5811]","[429, 420, 414, 397, 409, 414, 421, 411, 425, 443, 442, 430, 442]","[126, 556, 974, 1389, 1790, 2193, 2607, 3029, 3444, 3864, 4308, 4755, 5183, 5621]","[206, 635, 1055, 1469, 1867, 2275, 2689, 3110, 3521, 3946, 4389, 4832, 5262, 5703]","[317, 743, 1158, 1575, 1970, 2384, 2794, 3218, 3628, 4055, 4494, 4937, 5369, 5813]","[429, 420, 414, 398, 408, 414, 421, 411, 425, 443, 443, 430, 441]","[113, 542, 961, 1375, 1772, 2180, 2594, 3015, 3425, 3853, 4294, 4738, 5167, 5610]","[211, 641, 1061, 1476, 1872, 2280, 2695, 3117, 3527, 3950, 4395, 4838, 5266, 5709]","[358, -1, 1249, 1672, -1, -1, -1, -1, 3697, -1, -1, 4983, -1, -1]","[430, 420, 415, 396, 408, 415, 422, 410, 423, 445, 443, 428, 443]","[99, 593, 947, 1428, 1819, 2166, 2579, 3070, 3413, 3905, 4349, 4789, 5218, 5595]","[181, 654, 1074, 1488, 1886, 2295, 2708, 3129, 3540, 3965, 4408, 4850, 5281, 5721]","[232, 804, 1223, 1639, -1, 2438, 2862, 3274, 3698, 4115, -1, -1, -1, 5865]","[473, 420, 414, 398, 409, 413, 421, 411, 425, 443, 442, 431, 440]","[132, 570, 980, 1400, 1793, 2201, 2615, 3043, 3450, 3873, 4315, 4759, 5189, 5629]","[204, 632, 1052, 1467, 1863, 2273, 2686, 3107, 3518, 3943, 4386, 4829, 5258, 5700]","[311, 743, 1161, 1574, 1973, 2380, 2795, 3216, 3627, 4052, 4497, 4938, 5368, 5810]","[428, 420, 415, 396, 410, 413, 421, 411, 425, 443, 443, 429, 442]","[118, 549, 968, 1381, 1786, 2188, 2601, 3022, 3432, 3859, 4302, 4751, 5179, 5617]","[207, 636, 1056, 1471, 1868, 2276, 2690, 3111, 3523, 3947, 4390, 4833, 5263, 5704]","[336, 705, 1145, 1542, 1925, 2404, 2793, 3243, 3664, 4073, 4490, 4931, 5394, 5829]","[429, 420, 415, 397, 408, 414, 421, 412, 424, 443, 443, 430, 441]","[125, 551, 972, 1384, 1784, 2192, 2607, 3028, 3439, 3863, 4256, 4750, 5179, 5620]","[189, 617, 1037, 1452, 1849, 2257, 2671, 3092, 3504, 3928, 4371, 4814, 5244, 5685]","[314, 746, 1164, 1580, 1977, 2382, 2798, 3221, 3630, 4055, 4492, 4941, 5372, 5812]","[428, 420, 415, 397, 408, 414, 421, 412, 424, 443, 443, 430, 441]","[125, 554, 975, 1389, 1787, 2195, 2608, 3027, 3441, 3866, 4309, 4751, 5182, 5624]","[190, 619, 1039, 1454, 1851, 2259, 2673, 3094, 3505, 3929, 4372, 4816, 5245, 5686]","[314, 743, 1162, 1578, 1974, 2383, 2797, 3217, 3629, 4054, 4498, 4941, 5371, 5812]","[429, 420, 415, 397, 408, 414, 421, 411, 424, 443, 444, 429, 441]","[128, 554, 975, 1391, 1780, 2192, 2611, 3029, 3438, 3865, 4312, 4755, 5183, 5623]","[195, 625, 1044, 1459, 1856, 2264, 2678, 3100, 3511, 3935, 4378, 4821, 5251, 5692]","[314, 739, 1161, 1575, 1973, 2383, 2795, 3217, 3627, 4053, 4497, 4940, 5368, 5811]","[430, 419, 415, 397, 408, 414, 422, 411, 424, 443, 443, 430, 441]","[128, 556, 976, 1391, 1787, 2205, 2609, 3031, 3444, 3868, 4308, 4754, 5183, 5624]","[203, 632, 1052, 1467, 1864, 2273, 2686, 3107, 3519, 3943, 4386, 4829, 5259, 5700]","[312, 742, 1160, 1577, 1972, 2380, 2795, 3216, 3627, 4052, 4496, 4939, 5369, 5810]","[429, 420, 415, 397, 409, 413, 421, 412, 424, 443, 443, 430, 441]","[122, 557, 978, 1393, 1791, 2195, 2609, 3032, 3446, 3866, 4310, 4754, 5185, 5624]","[205, 633, 1053, 1468, 1865, 2274, 2687, 3108, 3520, 3944, 4387, 4830, 5260, 5701]","[313, 740, 1157, 1574, 1972, 2378, 2792, 3218, 3624, 4051, 4494, 4938, 5368, 5811]","[428, 420, 415, 397, 409, 413, 421, 412, 424, 443, 443, 430, 441]","[127, 557, 969, 1390, 1790, 2197, 2610, 3036, 3448, 3865, 4307, 4757, 5184, 5624]","[206, 635, 1055, 1469, 1866, 2275, 2689, 3110, 3521, 3946, 4388, 4831, 5261, 5703]","[320, 680, 1156, 1575, 1971, 2381, 2804, 3214, 3625, -1, 4496, 4937, 5365, 5810]","[429, 420, 414, 397, 409, 414, 421, 411, 425, 442, 443, 430, 442]"
A00003,"[269, 661, 1054, 1453, 1839, 2229, 2620, 3013, 3390, 3770, 4152, 4536, 4916, 5290, 5667, 6044]","[334, 727, 1122, 1519, 1906, 2294, 2685, 3079, 3458, 3835, 4216, 4601, 4983, 5357, 5732, 6110]","[408, 762, 1167, 1567, 2027, 2328, 2801, 3139, 3504, 3947, 4338, 4721, 5104, 5479, 5854, 6233]","[393, 395, 397, 387, 388, 391, 394, 379, 377, 381, 385, 382, 374, 375, 378]","[260, 652, 1048, 1444, 1832, 2221, 2612, 3005, 3386, 3762, 4143, 4527, 4909, 5283, 5660, 6037]","[339, 731, 1126, 1523, 1911, 2299, 2689, 3083, 3463, 3840, 4221, 4605, 4987, 5361, 5737, 6114]","[453, 841, 1229, 1636, 2027, 2414, 2804, 3202, 3574, 3950, 4336, 4717, 5105, 5477, 5849, 6245]","[392, 395, 397, 388, 388, 390, 394, 380, 377, 381, 384, 382, 374, 376, 377]","[258, 651, 1046, 1376, 1830, 2218, 2610, 2925, 3383, 3760, 4142, 4450, 4824, 5281, 5658, 6035]","[341, 733, 1128, 1443, 1913, 2301, 2691, 3002, 3465, 3842, 4222, 4525, 4907, 5364, 5739, 6116]","[389, 881, 1176, 1526, 1983, 2359, 2806, 3086, 3570, 3884, 4304, 4608, 4991, 5401, 5801, 6282]","[392, 395, 315, 470, 388, 390, 311, 463, 377, 380, 303, 382, 457, 375, 377]","[231, 616, 1018, 1416, 1806, 2188, 2577, 2973, 3345, 3733, 4110, 4493, 4870, 5245, 5623, 6008]","[322, 714, 1109, 1507, 1895, 2282, 2673, 3067, 3447, 3822, 4204, 4589, 4970, 5345, 5720, 6097]","[374, 783, 1155, 1551, 1944, 2340, 2721, 3111, 3494, 3867, 4252, 4640, 5035, 5392, 5779, 6141]","[392, 395, 398, 388, 387, 391, 394, 380, 375, 382, 385, 381, 375, 375, 377]","[234, 625, 1021, 1408, 1792, 2194, 2584, 2976, 3355, 3733, 4118, 4500, 4879, 5253, 5632, 6005]","[329, 722, 1117, 1515, 1901, 2290, 2680, 3075, 3454, 3829, 4211, 4597, 4978, 5352, 5727, 6105]","[407, 765, 1166, 1565, 2027, 2330, 2743, 3137, 3504, 3893, 4271, 4724, 5056, 5480, 5857, 6146]","[393, 395, 398, 386, 389, 390, 395, 379, 375, 382, 386, 381, 374, 375, 378]","[259, 651, 1047, 1373, 1831, 2219, 2611, 2920, 3384, 3761, 4143, 4451, 4819, 5198, 5562, 6036]","[340, 731, 1127, 1444, 1912, 2300, 2690, 3004, 3464, 3841, 4221, 4526, 4908, 5282, 5659, 6115]","[456, 842, 1177, 1524, 1967, 2412, 2805, 3084, 3573, 3952, 4335, 4606, 4989, 5363, 5738, -1]","[391, 396, 317, 468, 388, 390, 314, 460, 377, 380, 305, 382, 374, 377, 456]","[252, 645, 1041, 1434, 1825, 2213, 2605, 2998, 3378, 3754, 4134, 4519, 4899, 5275, 5653, 6029]","[329, 720, 1115, 1512, 1901, 2289, 2679, 3072, 3453, 3829, 4210, 4594, 4976, 5351, 5726, 6103]","[441, 769, 1236, 1626, 1950, 2408, 2803, 3113, 3567, 3939, 4256, 4714, 5101, 5407, 5846, 6143]","[391, 395, 397, 389, 388, 390, 393, 381, 376, 381, 384, 382, 375, 375, 377]","[248, 647, 1041, 1439, 1825, 2215, 2603, 2997, 3378, 3755, 4139, 4519, 4901, 5273, 5653, -1]","[329, 720, 1116, 1513, 1901, 2288, 2679, 3073, 3453, 3829, 4210, 4595, 4977, 5351, 5727, 6104]","[446, 839, 1235, 1633, 2019, 2408, 2799, 3193, 3572, 3947, 4329, 4716, 5096, 5470, 5847, 6218]","[391, 396, 397, 388, 387, 391, 394, 380, 376, 381, 385, 382, 374, 376, 377]","[259, 651, 1044, 1445, 1830, 2217, 2609, 3002, 3381, 3758, 4141, 4521, 4894, 5276, 5661, 6028]","[331, 723, 1119, 1516, 1903, 2291, 2682, 3076, 3455, 3832, 4213, 4598, 4979, 5353, 5729, 6107]","[448, 839, 1236, 1633, 2020, 2409, 2799, 3193, 3572, 3949, 4331, 4715, 5096, 5471, 5848, 6222]","[392, 396, 397, 387, 388, 391, 394, 379, 377, 381, 385, 381, 374, 376, 378]","[263, 652, 1046, 1443, 1833, 2223, 2614, 3006, 3384, 3763, 4142, 4524, 4903, 5281, 5661, 6034]","[334, 726, 1121, 1518, 1906, 2294, 2685, 3078, 3458, 3835, 4216, 4600, 4981, 5356, 5732, 6109]","[448, 839, 1236, 1633, 2019, 2409, 2800, 3194, 3572, 3949, 4330, 4715, 5096, 5470, 5847, 6222]","[392, 395, 397, 388, 388, 391, 393, 380, 377, 381, 384, 381, 375, 376, 377]","[262, 655, 1046, 1445, 1835, 2228, 2611, 3009, 3384, 3767, 4147, 4527, 4915, 5283, 5665, 6039]","[335, 727, 1122, 1519, 1906, 2295, 2686, 3079, 3459, 3836, 4217, 4601, 4983, 5357, 5733, 6110]","[448, 838, 1237, 1630, 2016, 2411, 2805, 3194, 3574, 3949, 4331, 4715, 5096, 5474, 5850, 6223]","[392, 395, 397, 387, 389, 391, 393, 380, 377, 381, 384, 382, 374, 376, 377]","[250, 651, 1048, 1448, 1818, 2228, 2612, 3007, 3397, 3766, 4176, 4528, 4899, 5289, 5659, 6039]","[336, 728, 1123, 1520, 1907, 2296, 2687, 3080, 3459, 3836, 4218, 4602, 4984, 5358, 5734, 6112]","[451, 859, 1237, 1630, 2027, 2346, 2803, 3203, 3506, 3949, 4344, 4722, 5102, 5481, 5850, 6228]","[392, 395, 397, 387, 389, 391, 393, 379, 377, 382, 384, 382, 374, 376, 378]"
A00006,"[333, 873, 1328, 1853, 2267, 2753, 3217, 3704, 4172, 4651]","[444, 937, 1437, 1914, 2391, 2866, 3332, 3807, 4283, 4761]","[569, 1062, 1565, 2036, 2518, 2993, 3460, 3938, 4411, 4891]","[493, 500, 477, 477, 475, 466, 475, 476, 478]","[376, 869, 1370, 1846, 2315, 2799, 3262, 3742, 4214, 4691]","[447, 940, 1440, 1917, 2394, 2870, 3335, 3815, 4287, 4764]","[573, 1066, 1568, 2040, 2525, 2998, 3465, 3942, 4414, 4893]","[493, 500, 477, 477, 476, 465, 480, 472, 477]","[375, 860, 1367, 1845, 2314, 2798, 3260, 3737, 4213, 4689]","[450, 942, 1443, 1920, 2397, 2872, 3338, 3817, 4289, 4766]","[580, 1075, 1500, 1986, 2444, 3004, 3468, 3863, 4421, 4894]","[492, 501, 477, 477, 475, 466, 479, 472, 477]","[344, 904, 1301, 1874, 2285, 2747, 3227, 3699, 4177, 4646]","[423, 967, 1409, 1940, 2368, 2837, 3312, 3790, 4264, 4736]","[471, 1115, 1470, -1, 2422, 2911, 3371, 3849, 4316, 4797]","[544, 442, 531, 428, 469, 475, 478, 474, 472]","[343, 829, 1338, 1810, 2293, 2764, 3205, 3702, 4176, 4651]","[436, 929, 1429, 1906, 2384, 2858, 3324, 3803, 4276, 4753]","[537, 1027, 1544, 1957, 2511, 2920, 3383, 3854, 4391, 4824]","[493, 500, 477, 478, 474, 466, 479, 473, 477]","[375, 868, 1369, 1845, 2314, 2798, 3261, 3740, 4214, 4690]","[448, 941, 1441, 1915, 2395, 2871, 3336, 3815, 4288, 4765]","[576, 1068, 1570, 2042, 2447, 3000, 3466, 3943, 4416, 4893]","[493, 500, 474, 480, 476, 465, 479, 473, 477]","[331, 830, 1358, 1832, 2311, 2784, 3250, 3701, 4204, 4680]","[434, 927, 1428, 1905, 2382, 2857, 3323, 3802, 4274, 4751]","[535, 1024, 1512, 1997, 2477, 2938, 3420, 3891, 4356, 4829]","[493, 501, 477, 477, 475, 466, 479, 472, 477]","[363, 856, 1357, 1829, 2311, 2785, 3250, 3701, 4172, 4680]","[437, 929, 1430, 1906, 2383, 2859, 3324, 3804, 4276, 4753]","[560, 1052, 1556, 2028, 2508, 2986, 3451, 3929, 4400, 4877]","[492, 501, 476, 477, 476, 465, 480, 472, 477]","[368, 862, 1361, 1831, 2313, 2787, 3252, 3732, 4204, 4682]","[444, 937, 1437, 1914, 2391, 2867, 3332, 3811, 4283, 4761]","[567, 1060, 1562, 2034, 2515, 2992, 3458, 3936, 4408, 4885]","[493, 500, 477, 477, 476, 465, 479, 472, 478]","[373, 863, 1368, 1838, 2327, 2800, 3254, 3738, 4218, 4691]","[445, 938, 1438, 1915, 2392, 2868, 3333, 3813, 4285, 4762]","[572, 1065, 1566, 2038, 2519, 2994, 3461, 3941, 4413, 4890]","[493, 500, 477, 477, 476, 465, 480, 472, 477]","[373, 869, 1370, 1843, 2327, 2803, 3267, 3745, 4219, 4693]","[445, 938, 1439, 1916, 2393, 2868, 3334, 3813, 4285, 4762]","[573, 1066, 1567, 2039, 2522, 2997, 3463, 3943, 4415, 4892]","[493, 501, 477, 477, 475, 466, 479, 472, 477]","[381, 830, 1371, 1861, 2327, 2803, 3267, 3744, 4219, 4694]","[445, 938, 1439, 1916, 2393, 2868, 3334, 3813, 4285, 4762]","[575, 1067, 1568, 2041, 2523, 2998, 3464, 3944, 4416, 4896]","[493, 501, 477, 477, 475, 466, 479, 472, 477]"
A00008,"[466, 929, 1423, 1888, 2331, 2726, 3240, 3725, 4119, 4570]","[555, 1021, 1476, 1941, 2431, 2830, 3319, 3808, 4225, 4666]","[674, 1138, 1593, 2059, 2549, 2947, 3466, 3927, 4343, 4785]","[466, 455, 465, 490, 399, 489, 489, 417, 441]","[494, 960, 1418, 1881, 2370, 2769, 3242, 3749, 4164, 4605]","[559, 1025, 1480, 1945, 2435, 2834, 3323, 3812, 4229, 4670]","[678, 1144, 1597, 2066, 2555, 2954, 3472, 3932, 4351, 4792]","[466, 455, 465, 490, 399, 489, 489, 417, 441]","[492, 957, 1415, 1878, 2368, 2767, 3243, 3746, 4162, 4603]","[561, 1027, 1482, 1947, 2437, 2836, 3325, 3814, 4231, 4672]","[684, 1152, 1612, 2076, 2567, 2965, 3480, 3947, 4364, 4802]","[466, 455, 465, 490, 399, 489, 489, 417, 441]","[445, 910, 1362, 1842, 2336, 2716, 3247, 3712, 4127, 4561]","[574, 1040, 1496, 1960, 2450, 2850, 3338, 3827, 4244, 4685]","[727, 1205, -1, -1, 2618, -1, 3525, -1, 4406, 4846]","[466, 456, 464, 490, 400, 488, 489, 417, 441]","[460, 880, 1381, 1825, 2333, 2725, 3217, 3712, 4123, 4564]","[542, 1007, 1462, 1928, 2417, 2816, 3305, 3794, 4211, 4654]","[656, 1073, 1583, 2000, 2537, 2941, 3409, 3916, 4292, 4729]","[465, 455, 466, 489, 399, 489, 489, 417, 443]","[493, 959, 1417, 1879, 2369, 2768, 3243, 3747, 4163, 4604]","[560, 1026, 1481, 1946, 2436, 2835, 3324, 3813, 4230, 4671]","[680, 1147, 1599, 2069, 2560, 2958, 3475, 3936, 4356, 4796]","[466, 455, 465, 490, 399, 489, 489, 417, 441]","[480, 949, 1403, 1868, 2329, 2752, 3241, 3736, 4149, 4593]","[548, 1014, 1469, 1934, 2424, 2823, 3312, 3801, 4218, 4659]","[666, 1114, 1583, 2049, 2539, 2942, 3459, 3920, 4336, 4775]","[466, 455, 465, 490, 399, 489, 489, 417, 441]","[482, 908, 1359, 1869, 2360, 2656, 3190, 3735, 4149, 4591]","[548, 1014, 1469, 1934, 2424, 2824, 3312, 3801, 4218, 4659]","[669, 1134, 1589, 2054, 2543, 2944, 3461, 3922, 4340, 4781]","[466, 455, 465, 490, 400, 488, 489, 417, 441]","[488, 955, 1411, 1873, 2365, 2776, 3238, 3741, 4161, 4559]","[558, 1023, 1478, 1944, 2433, 2833, 3321, 3810, 4227, 4669]","[672, 1138, 1593, 2058, 2547, 2948, 3465, 3926, 4343, 4785]","[465, 455, 466, 489, 400, 488, 489, 417, 442]","[491, 964, 1418, 1831, 2352, 2775, 3207, 3753, 4177, 4610]","[558, 1024, 1479, 1944, 2434, 2833, 3322, 3811, 4228, 4669]","[673, 1136, 1591, 2059, 2550, 2952, 3465, 3927, 4344, 4787]","[466, 455, 465, 490, 399, 489, 489, 417, 441]","[497, 963, 1378, 1860, 2373, 2774, 3242, 3757, 4170, 4609]","[559, 1024, 1480, 1944, 2434, 2834, 3322, 3811, 4228, 4670]","[675, 1141, 1597, 2061, 2551, 2951, 3469, 3929, 4345, 4788]","[465, 456, 464, 490, 400, 488, 489, 417, 442]","[496, 962, 1381, 1882, 2373, 2772, 3186, 3750, 4173, 4608]","[559, 1025, 1480, 1945, 2435, 2834, 3323, 3812, 4229, 4670]","[677, 1142, 1598, 2063, 2554, 2952, 3470, 3930, 4346, 4790]","[466, 455, 465, 490, 399, 489, 489, 417, 441]"
A00009,"[396, 718, 1045, 1378, 1704, 2023, 2344, 2675, 2993, 3309, 3635, 3965, 4284, 4600, 4922, 5246, 5569, 5890]","[445, 767, 1096, 1429, 1754, 2071, 2395, 2724, 3042, 3358, 3685, 4014, 4333, 4652, 4971, 5295, 5619, 5939]","[555, 878, 1207, 1540, 1864, 2181, 2507, 2835, 3152, 3469, 3797, 4126, 4443, 4763, 5083, 5407, 5730, -1]","[322, 329, 333, 325, 317, 324, 329, 318, 316, 327, 329, 319, 319, 319, 324, 324, 320]","[392, 715, 1043, 1376, 1701, 2019, 2342, 2672, 2991, 3306, 3632, 3961, 4281, 4599, 4920, 5241, 5566, 5887]","[446, 767, 1096, 1430, 1754, 2071, 2395, 2724, 3042, 3358, 3685, 4014, 4334, 4652, 4971, 5295, 5619, 5940]","[560, 881, 1210, 1545, 1870, 2184, 2510, 2839, 3157, 3473, 3801, 4129, 4448, 4767, 5087, 5412, 5734, -1]","[321, 329, 334, 324, 317, 324, 329, 318, 316, 327, 329, 320, 318, 319, 324, 324, 321]","[305, 634, 855, 1035, 1369, 1694, 2014, 2262, 2629, 2928, 3240, 3576, 3764, 3954, 4205, 4503, 4695, 4818, 5049, 5234, 5560, 5831]","[390, 710, 910, 1110, 1442, 1766, 2071, 2376, 2679, 3021, 3304, 3625, 3826, 4028, 4313, 4598, 4754, 4932, 5110, 5310, 5631, 5886]","[450, 780, 1035, 1155, 1477, 1807, 2152, 2409, 2740, 3115, 3368, 3700, 3876, -1, 4346, 4660, 4820, 4986, 5160, -1, 5689, 5949]","[320, 200, 200, 332, 324, 305, 305, 303, 342, 283, 321, 201, 202, 285, 285, 156, 178, 178, 200, 321, 255]","[354, 674, 1010, 1334, 1668, 1984, 2308, 2632, 2953, 3250, 3605, 3920, 4246, 4567, 4871, 5203, 5522, 5844]","[426, 748, 1077, 1410, 1735, 2052, 2377, 2705, 3023, 3339, 3666, 3996, 4314, 4634, 4951, 5276, 5601, 5920]","[478, 794, 1123, 1461, 1782, 2097, 2423, 2757, 3073, 3390, 3717, 4042, 4363, 4680, 4997, 5324, 5655, 5966]","[322, 329, 333, 325, 317, 325, 328, 318, 316, 327, 330, 318, 320, 317, 325, 325, 319]","[363, 722, 1048, 1383, 1710, 1990, 2350, 2678, 2963, 3276, 3642, 3969, 4253, 4576, 4886, 5250, 5571, 5851]","[445, 767, 1096, 1429, 1753, 2070, 2395, 2724, 3042, 3357, 3685, 4014, 4333, 4652, 4971, 5295, 5619, 5939]","[552, 804, 1206, 1538, 1860, 2179, 2504, 2833, 3149, 3466, 3795, 4124, 4439, 4760, 5080, 5405, 5727, -1]","[322, 329, 333, 324, 317, 325, 329, 318, 315, 328, 329, 319, 319, 319, 324, 324, 320]","[391, 713, 1040, 1374, 1699, 2017, 2341, 2666, 2989, 3305, 3629, 3958, 4279, 4598, 4917, 5238, 5564, 5887]","[446, 767, 1096, 1430, 1754, 2071, 2395, 2724, 3042, 3358, 3685, 4015, 4334, 4652, 4971, 5295, 5620, 5940]","[564, 883, 1217, 1555, 1875, 2188, 2513, 2843, 3160, 3475, 3806, 4135, 4455, 4775, 5003, 5419, 5739, -1]","[321, 329, 334, 324, 317, 324, 329, 318, 316, 327, 330, 319, 318, 319, 324, 325, 320]","[378, 709, 1030, 1365, 1690, 1992, 2332, 2635, 2978, 3291, 3621, 3952, 4268, 4587, 4908, 5231, 5558, 5879]","[432, 753, 1082, 1416, 1740, 2057, 2381, 2710, 3028, 3343, 3671, 4001, 4320, 4638, 4956, 5281, 5606, 5926]","[555, 888, 1214, 1549, 1872, 2184, 2511, 2839, 3154, 3472, 3802, 4131, 4447, 4759, 5089, 5414, 5739, 5978]","[321, 329, 334, 324, 317, 324, 329, 318, 315, 328, 330, 319, 318, 318, 325, 325, 320]","[391, 713, 1040, 1373, 1698, 2015, 2340, 2667, 2987, 3304, 3628, 3957, 4273, 4596, 4914, 5239, 5565, 5882]","[437, 758, 1086, 1420, 1745, 2062, 2385, 2715, 3033, 3349, 3676, 4005, 4324, 4643, 4961, 5285, 5610, 5931]","[552, 873, 1205, 1538, 1861, 2179, 2503, 2833, 3149, 3466, 3795, 4124, 4442, 4761, 5080, 5406, 5729, -1]","[321, 328, 334, 325, 317, 323, 330, 318, 316, 327, 329, 319, 319, 318, 324, 325, 321]","[392, 715, -1, 1376, 1700, 2018, 2341, 2669, 2988, 3305, 3631, 3959, 4279, 4599, 4917, 5242, 5567, 5886]","[442, 763, 1092, 1425, 1750, 2067, 2391, 2720, 3038, 3354, 3681, 4010, 4329, 4649, 4967, 5291, 5615, 5936]","[553, 875, 1204, 1538, 1862, 2180, 2504, 2834, 3151, 3467, 3795, 4125, 4443, 4763, 5081, 5406, 5730, -1]","[321, 329, 333, 325, 317, 324, 329, 318, 316, 327, 329, 319, 320, 318, 324, 324, 321]","[394, 716, 1044, 1377, 1701, 2019, 2342, 2671, 2990, 3306, 3633, 3960, 4282, 4600, 4918, 5243, 5568, 5889]","[444, 765, 1094, 1427, 1752, 2069, 2393, 2722, 3040, 3356, 3683, 4012, 4331, 4650, 4969, 5293, 5617, 5938]","[555, 877, 1206, 1540, 1863, 2181, 2505, 2835, 3152, 3468, 3797, 4126, 4444, 4764, 5083, 5408, 5731, -1]","[321, 329, 333, 325, 317, 324, 329, 318, 316, 327, 329, 319, 319, 319, 324, 324, 321]","[395, 717, 1045, 1377, 1702, 2021, 2343, 2673, 2990, 3307, 3635, 3962, 4282, 4601, 4919, 5244, 5568, 5890]","[444, 766, 1095, 1428, 1752, 2069, 2393, 2723, 3041, 3356, 3684, 4013, 4332, 4651, 4969, 5293, 5618, 5938]","[556, 878, 1207, 1540, 1864, 2182, 2506, 2836, 3153, 3470, 3798, 4127, 4445, 4765, 5084, 5408, 5732, -1]","[322, 329, 333, 324, 317, 324, 330, 318, 315, 328, 329, 319, 319, 318, 324, 325, 320]","[396, 717, 1046, 1379, 1704, 2021, 2344, 2674, 2992, 3307, 3635, 3963, 4283, 4602, 4921, 5245, 5569, 5891]","[445, 767, 1095, 1429, 1753, 2070, 2394, 2724, 3041, 3357, 3685, 4014, 4333, 4652, 4970, 5294, 5619, 5939]","[557, 879, 1207, 1541, 1865, 2183, 2508, 2837, 3154, 3471, 3799, 4129, 4446, 4766, 5085, 5409, 5733, -1]","[322, 328, 334, 324, 317, 324, 330, 317, 316, 328, 329, 319, 319, 318, 324, 325, 320]"
A00010,"[466, 1004, 1471, 2015, 2533, 3047, 3539, 4123, 4661, 5175, 5696, 6139, 6641, 7151]","[529, 1064, 1594, 2122, 2650, 3163, 3663, 4183, 4722, 5235, 5756, 6256, 6755, 7265]","[658, 1193, 1724, 2253, 2780, 3292, 3791, 4313, 4852, 5366, 5887, 6386, 6885, 7396]","[535, 530, 528, 528, 513, 500, 520, 539, 513, 521, 500, 499, 510]","[459, 994, 1525, 2052, 2578, 3095, 3593, 4115, 4651, 5165, 5686, 6187, 6686, 7194]","[530, 1066, 1595, 2123, 2651, 3165, 3664, 4184, 4723, 5236, 5757, 6257, 6756, 7266]","[667, 1204, 1732, 2261, 2787, 3303, 3800, 4321, 4860, 5373, 5896, 6395, 6892, 7404]","[536, 529, 528, 528, 514, 499, 520, 539, 513, 521, 500, 499, 510]","[455, 989, 1520, 2048, 2574, 3089, 3588, 4109, 4647, 5161, 5680, 6182, 6681, 7190]","[530, 1066, 1596, 2124, 2651, 3165, 3664, 4185, 4723, 5237, 5757, 6258, 6757, 7266]","[673, 1212, 1739, 2266, 2792, 3310, 3810, 4328, 4865, 5378, 5902, 6402, 6900, 7409]","[536, 530, 528, 527, 514, 499, 521, 538, 514, 520, 501, 499, 509]","[419, 961, 1484, 1996, 2546, 3058, 3559, 4079, 4590, 5104, 5631, 6150, 6647, 7162]","[548, 1084, 1613, 2141, 2669, 3183, 3682, 4203, 4741, 5254, 5775, 6275, 6774, 7284]","[716, 1250, 1783, 2312, 2841, 3356, -1, 4372, -1, -1, 5946, -1, -1, 7452]","[536, 529, 528, 528, 514, 499, 521, 538, 513, 521, 500, 499, 510]","[422, 965, 1540, 2015, 2596, 3061, 3609, 4082, 4617, 5181, 5702, 6202, 6701, 7165]","[550, 1086, 1615, 2143, 2671, 3185, 3684, 4204, 4742, 5256, 5777, 6278, 6776, 7285]","[636, 1179, 1709, -1, 2756, 3277, 3777, 4294, 4819, 5342, 5873, 6370, 6870, 7366]","[536, 529, 528, 528, 514, 499, 520, 538, 514, 521, 501, 498, 509]","[457, 991, 1522, 2050, 2576, 3092, 3590, 4112, 4649, 5163, 5682, 6184, 6683, 7191]","[530, 1066, 1595, 2123, 2651, 3165, 3664, 4184, 4723, 5236, 5757, 6257, 6756, 7266]","[669, 1207, 1735, 2263, 2789, 3306, 3804, 4324, 4862, 5375, 5898, 6397, 6895, 7406]","[536, 529, 528, 528, 514, 499, 520, 539, 513, 521, 500, 499, 510]","[448, 984, 1471, 2043, 2570, 3047, 3584, 4104, 4642, 5155, 5677, 6176, 6676, 7186]","[516, 1052, 1581, 2109, 2637, 3151, 3650, 4170, 4709, 5222, 5743, 6243, 6742, 7252]","[616, 1135, 1676, 2208, 2739, 3247, 3746, 4264, 4803, 5318, 5841, 6338, 6845, 7350]","[536, 529, 528, 528, 514, 499, 520, 539, 513, 521, 500, 499, 510]","[-1, -1, 1471, 2001, 2573, 3087, 3542, 4106, 4645, 5077, -1, 6177, 6634, 7187]","[516, 1052, 1582, 2110, 2637, 3152, 3651, 4171, 4709, 5223, 5744, 6244, 6743, 7252]","[643, 1183, 1711, 2241, 2767, 3275, 3781, 4301, 4838, 5351, 5871, 6372, 6874, 7382]","[536, 530, 528, 527, 515, 499, 520, 538, 514, 521, 500, 499, 509]","[463, 1003, 1540, 2061, 2591, 3101, 3603, 4122, 4659, 5174, 5677, 6193, 6695, 7203]","[528, 1064, 1594, 2122, 2649, 3163, 3662, 4183, 4721, 5235, 5756, 6255, 6755, 7264]","[649, 1187, 1718, 2254, 2773, 3290, 3788, 4308, 4849, 5361, 5878, 6380, 6881, 7388]","[536, 530, 528, 527, 514, 499, 521, 538, 514, 521, 499, 500, 509]","[321, 1005, 1533, 2054, 2589, 3103, 3600, 4105, 4551, 5178, 5697, 6195, 6696, 7204]","[529, 1065, 1594, 2123, 2650, 3164, 3663, 4184, 4722, 5235, 5756, 6256, 6755, 7265]","[662, 1194, 1726, 2256, 2783, 3295, 3797, 4224, 4857, 5372, 5890, 6386, 6888, 7400]","[536, 529, 529, 527, 514, 499, 521, 538, 513, 521, 500, 499, 510]","[467, 1002, 1532, 2061, 2586, 3103, 3604, 4112, 4661, 5173, 5695, 6193, 6571, 7148]","[529, 1065, 1595, 2123, 2650, 3164, 3663, 4184, 4722, 5236, 5757, 6257, 6756, 7265]","[667, 1197, 1727, 2257, 2784, 3296, 3797, 4318, 4768, 5370, 5889, 6390, 6888, 7400]","[536, 530, 528, 527, 514, 499, 521, 538, 514, 521, 500, 499, 509]","[463, 1000, 1533, 1999, 2585, 3101, 3599, 4119, 4660, 5173, 5692, 6194, 6693, 6893, 7203]","[530, 1066, 1595, 2123, 2651, 3165, 3664, 4184, 4723, 5236, 5757, 6257, 6756, 6998, 7266]","[663, 1199, 1729, 2257, 2785, 3295, 3797, 4319, 4857, 5371, 5890, 6392, 6892, 7201, 7401]","[536, 529, 528, 528, 514, 499, 520, 539, 513, 521, 500, 499, 242, 268]"
A00012,"[123, 578, 1020, 1458, 1892, 2312, 2725, 3139, 3559, 3995, 4437, 4878, 5335, 5791]","[198, 652, 1095, 1531, 1965, 2385, 2798, 3213, 3633, 4071, 4512, 4952, 5408, 5865]","[316, 770, 1213, 1649, 2083, 2503, 2916, 3331, 3751, 4190, 4630, 5069, 5528, 5984]","[454, 443, 436, 434, 420, 413, 415, 420, 438, 441, 440, 456, 457]","[114, 569, 1014, 1450, 1882, 2299, 2713, 3131, 3548, 3988, 4427, 4869, 5325, 5782]","[197, 652, 1095, 1531, 1964, 2384, 2798, 3213, 3632, 4070, 4511, 4952, 5408, 5864]","[317, 772, 1210, 1650, 2085, 2501, 2916, 3329, 3751, 4186, 4626, 5067, 5531, 5984]","[455, 443, 436, 433, 420, 414, 415, 419, 438, 441, 441, 456, 456]","[112, 566, 1011, 1448, 1881, 2298, 2710, 3125, 3546, 3985, 4421, 4865, 5322, 5778]","[182, 636, 1080, 1546, 1950, 2370, 2783, 3198, 3618, 4056, 4496, 4968, 5393, 5849]","[218, 673, 1115, 1584, 1985, 2405, 2821, 3234, 3652, 4095, 4533, 5008, 5431, 5888]","[454, 444, 466, 404, 420, 413, 415, 420, 438, 440, 472, 425, 456]","[77, 508, 1049, 1413, 1845, 2349, 2764, 3092, 3497, 3914, 4386, 4905, 5371, 5740]","[215, 669, 1113, 1549, 1982, 2402, 2816, 3231, 3650, 4089, 4529, 4969, 5425, 5882]","[-1, -1, -1, 1711, 2151, -1, 2990, 3403, 3820, -1, 4706, -1, -1, -1]","[454, 444, 436, 433, 420, 414, 415, 419, 439, 440, 440, 456, 457]","[129, 582, 1027, 1464, 1898, 2317, 2730, 3144, 3564, 4000, 4442, 4883, 5341, 5795]","[198, 652, 1096, 1531, 1965, 2385, 2799, 3214, 3633, 4071, 4512, 4952, 5409, 5865]","[316, 770, 1214, 1649, 2083, 2503, 2916, 3331, 3751, 4191, 4631, 5070, 5528, 5985]","[454, 444, 435, 434, 420, 414, 415, 419, 438, 441, 440, 457, 456]","[113, 497, 934, 1355, 1759, 2299, 2662, 3024, 3451, 3905, 4349, 4773, 5200, 5696]","[193, 568, 1014, 1450, 1882, 2378, 2753, 3129, 3547, 3986, 4424, 4868, 5323, 5781]","[288, 642, 1091, 1529, 1961, 2493, 2791, 3206, 3628, 4063, 4504, 4949, 5403, 5857]","[375, 446, 436, 432, 496, 375, 376, 418, 439, 438, 444, 455, 458]","[99, 550, 993, 1430, 1863, 2285, 2699, 3114, 3531, 3970, 4409, 4852, 5306, 5765]","[183, 637, 1080, 1516, 1950, 2370, 2783, 3198, 3617, 4056, 4496, 4937, 5393, 5849]","[234, 715, 1146, 1563, 1998, 2437, 2838, 3265, 3688, 4117, 4574, 4983, 5463, 5897]","[454, 443, 436, 434, 420, 413, 415, 419, 439, 440, 441, 456, 456]","[102, 553, 997, 1436, 1868, 2287, 2700, 3116, 3534, 3974, 4414, 4854, 5309, 5765]","[188, 642, 1086, 1521, 1955, 2375, 2789, 3204, 3623, 4061, 4502, 4942, 5399, 5855]","[309, 762, 1211, 1642, 2076, 2497, 2909, 3257, 3746, 4182, 4625, 5065, 5525, 5977]","[454, 444, 435, 434, 420, 414, 415, 419, 438, 441, 440, 457, 456]","[108, 560, 1002, 1441, 1872, 2293, 2703, 3117, 3538, 3975, 4416, 4859, 5317, 5769]","[193, 648, 1091, 1527, 1961, 2381, 2794, 3209, 3629, 4067, 4507, 4948, 5404, 5860]","[311, 768, 1209, 1643, 2078, 2498, 2913, 3328, 3747, 4185, 4628, 5068, 5524, 5979]","[455, 443, 436, 434, 420, 413, 415, 420, 438, 440, 441, 456, 456]","[107, 563, 1011, 1450, 1874, 2297, 2707, 3127, 3543, 3983, 4426, 4872, 5321, 5775]","[195, 649, 1093, 1528, 1962, 2382, 2795, 3210, 3630, 4068, 4509, 4949, 5405, 5861]","[309, 764, 1205, 1644, 2078, 2507, 2919, 3328, 3743, 4186, 4624, 5068, 5525, 5978]","[454, 444, 435, 434, 420, 413, 415, 420, 438, 441, 440, 456, 456]","[122, 568, 1010, 1444, 1876, 2299, 2729, 3136, 3552, 3991, 4429, 4874, 5328, 5782]","[196, 650, 1094, 1530, 1963, 2383, 2796, 3212, 3631, 4069, 4510, 4950, 5407, 5863]","[314, 768, 1208, 1644, 2082, 2501, 2916, 3328, 3749, 4189, 4627, 5068, 5526, 5980]","[454, 444, 436, 433, 420, 413, 416, 419, 438, 441, 440, 457, 456]","[122, 577, 1008, 1458, 1891, 2301, 2723, 3136, 3554, 3992, 4414, 4877, 5331, 5789]","[197, 652, 1095, 1531, 1965, 2384, 2798, 3213, 3632, 4070, 4511, 4952, 5408, 5864]","[316, 767, 1211, 1648, 2080, 2503, 2916, 3254, 3749, 4189, 4628, 5071, 5527, 5982]","[455, 443, 436, 434, 419, 414, 415, 419, 438, 441, 441, 456, 456]"
A00014,"[311, 675, 1038, 1418, 1802, 2175, 2553, 2945, 3328, 3697, 4092, 4493, 4868]","[389, 755, 1118, 1495, 1880, 2253, 2632, 3022, 3406, 3782, 4170, 4565, 4947]","[510, 874, 1241, 1615, 2002, 2307, 2753, 3144, 3527, 3829, 4217, 4645, -1]","[366, 363, 377, 385, 373, 379, 390, 384, 376, 388, 395, 382]","[309, 676, 1039, 1418, 1799, 2175, 2552, 2943, 3328, 3701, 4092, 4491, 4869]","[389, 756, 1118, 1495, 1881, 2254, 2632, 3022, 3407, 3782, 4170, 4566, 4948]","[513, 879, 1243, 1618, 2006, 2378, 2757, 3148, 3532, 3909, 4295, 4692, -1]","[367, 362, 377, 386, 373, 378, 390, 385, 375, 388, 396, 382]","[306, 676, 1041, 1418, 1798, 2175, 2550, 2935, 3327, 3704, 4091, 4479, 4869]","[389, 756, 1119, 1495, 1881, 2255, 2633, 3023, 3408, 3783, 4171, 4566, 4948]","[519, 884, 1247, 1627, 2011, 2384, 2763, 3155, 3539, 3913, 4303, 4696, -1]","[367, 363, 376, 386, 374, 378, 390, 385, 375, 388, 395, 382]","[266, 639, 1004, 1370, 1757, 2140, 2511, 2973, 3374, 3669, 4053, 4530, 4908]","[364, 734, 1098, 1474, 1860, 2233, 2608, 3042, 3426, 3759, 4146, 4589, 4967]","[433, 788, 1150, 1524, 1908, 2286, 2665, -1, 3591, 3818, 4204, 4737, -1]","[370, 364, 376, 386, 373, 375, 434, 384, 333, 387, 443, 378]","[271, 624, 1322, 1703, 2900, 3248, 4810]","[426, 793, 1467, 1853, 3059, 3380, 4980]","[501, 865, 1605, 1991, 3133, 3519, -1]","[367, 674, 386, 1206, 321, 1600]","[309, 676, 1040, 1418, 1798, 2175, 2551, 2937, 3328, 3702, 4092, 4489, 4869]","[389, 756, 1118, 1495, 1881, 2254, 2633, 3022, 3407, 3783, 4170, 4566, 4948]","[515, 881, 1244, 1621, 2007, 2380, 2759, 3151, 3535, 3910, 4297, 4693, -1]","[367, 362, 377, 386, 373, 379, 389, 385, 376, 387, 396, 382]","[297, 661, 1025, 1403, 1785, 2159, 2539, 2928, 3313, 3689, 4076, 4472, 4854]","[377, 743, 1106, 1483, 1869, 2242, 2620, 3010, 3395, 3770, 4158, 4554, 4935]","[470, 793, 1224, 1602, -1, -1, 2743, -1, -1, 3895, 4279, -1, -1]","[366, 363, 377, 386, 373, 378, 390, 385, 375, 388, 396, 381]","[315, 661, 1025, 1403, 1787, 2160, 2539, 2929, 3314, 3691, 4077, 4473, 4855]","[378, 744, 1107, 1484, 1869, 2242, 2621, 3011, 3396, 3771, 4159, 4554, 4936]","[505, 872, 1234, 1611, 1998, 2372, 2750, 3140, 3525, 3900, 4288, 4685, -1]","[366, 363, 377, 385, 373, 379, 390, 385, 375, 388, 395, 382]","[313, 664, 1041, 1415, 1801, 2163, 2553, 2934, 3330, 3694, 4093, 4491, 4871]","[386, 751, 1115, 1492, 1877, 2250, 2629, 3020, 3403, 3778, 4167, 4562, 4943]","[508, 874, 1238, 1615, 2001, 2374, 2753, 3144, 3528, 3903, 4292, 4688, -1]","[365, 364, 377, 385, 373, 379, 391, 383, 375, 389, 395, 381]","[310, 679, 1041, 1417, 1803, 2177, 2555, 2945, 3330, 3706, 4094, 4491, 4872]","[389, 755, 1118, 1495, 1880, 2254, 2632, 3022, 3407, 3782, 4170, 4566, 4947]","[510, 876, 1240, 1617, 2003, 2376, 2755, 3146, 3530, 3904, 4294, 4690, -1]","[366, 363, 377, 385, 374, 378, 390, 385, 375, 388, 396, 381]","[310, 678, 1033, 1417, 1789, 2177, 2557, 2945, 3331, 3706, 4095, 4490, 4872]","[389, 755, 1118, 1495, 1880, 2254, 2632, 3022, 3407, 3782, 4170, 4565, 4947]","[512, 877, 1239, 1618, 2003, 2377, 2756, 3146, 3530, 3905, 4295, 4690, -1]","[366, 363, 377, 385, 374, 378, 390, 385, 375, 388, 395, 382]","[309, 677, 1042, 1418, 1804, 2176, 2556, 2945, 3330, 3706, 4095, 4491, 4871]","[389, 756, 1118, 1495, 1881, 2254, 2633, 3022, 3407, 3782, 4170, 4566, 4948]","[511, 877, 1240, 1618, 2004, 2376, 2755, 3146, 3530, 3905, 4294, 4690, -1]","[367, 362, 377, 386, 373, 379, 389, 385, 375, 388, 396, 382]"
A00016,"[390, 772, 1171, 1573, 1906, 2306, 2756, 3141, 3546, 3921, 4383, 4780]","[439, 820, 1221, 1622, 1993, 2390, 2807, 3225, 3594, 4007, 4433, 4831]","[555, 935, 1337, 1738, 2114, 2504, 2927, 3343, 3713, 4125, 4551, 4955]","[381, 401, 401, 371, 397, 417, 418, 369, 413, 426, 398]","[388, 769, 1171, 1571, 1942, 2338, 2755, 3174, 3544, 3956, 4383, 4779]","[445, 825, 1226, 1627, 1999, 2394, 2812, 3229, 3600, 4012, 4437, 4835]","[560, 940, 1344, 1744, 2114, 2514, 2935, 3348, 3718, 4132, 4557, 4959]","[380, 401, 401, 372, 395, 418, 417, 371, 412, 425, 398]","[376, 758, 1153, 1555, 1933, 2325, 2739, 3154, 3532, 3941, 4364, 4763]","[446, 826, 1227, 1628, 2000, 2395, 2813, 3230, 3601, 4013, 4438, 4836]","[564, 945, 1349, 1748, 2115, 2515, 2939, 3352, 3722, 4133, 4560, 4963]","[380, 401, 401, 372, 395, 418, 417, 371, 412, 425, 398]","[353, 735, 1130, 1517, 1910, 2300, 2698, 3200, 3509, 3906, 4302, 4742]","[460, 839, 1241, 1642, 2013, 2409, 2826, 3244, 3615, 4026, 4452, 4850]","[623, 989, -1, 1809, -1, -1, -1, -1, -1, -1, -1, -1]","[379, 402, 401, 371, 396, 417, 418, 371, 411, 426, 398]","[360, 775, 1171, 1575, 1954, 2348, 2758, 3176, 3548, 3962, 4385, 4781]","[465, 843, 1245, 1647, 2018, 2413, 2831, 3249, 3620, 4030, 4457, 4855]","[635, 1033, 1387, 1798, 2087, 2476, -1, 3422, 3792, 4187, 4647, -1]","[378, 402, 402, 371, 395, 418, 418, 371, 410, 427, 398]","[384, 759, 1155, 1558, 1939, 2327, 2741, 3157, 3542, 3944, 4366, 4765]","[445, 825, 1226, 1627, 1999, 2394, 2812, 3230, 3601, 4012, 4438, 4836]","[562, 942, 1346, 1746, 2114, 2514, 2937, 3350, 3720, 4133, 4559, 4961]","[380, 401, 401, 372, 395, 418, 418, 371, 411, 426, 398]","[370, 749, 1151, 1548, 1899, 2318, 2735, 3154, 3522, 3933, 4363, 4761]","[434, 814, 1215, 1616, 1987, 2383, 2801, 3218, 3589, 4001, 4426, 4824]","[471, 851, 1254, 1654, 2024, 2421, 2859, 3257, 3627, 4063, 4465, 4865]","[380, 401, 401, 371, 396, 418, 417, 371, 412, 425, 398]","[373, 754, 1159, -1, 1926, 2322, 2679, 3133, 3528, 3938, -1, -1]","[434, 814, 1215, 1616, 1988, 2383, 2800, 3218, 3589, 4001, 4426, 4824]","[560, 931, 1331, 1736, 2116, 2506, 2922, 3340, 3716, 4125, 4552, 4954]","[380, 401, 401, 372, 395, 417, 418, 371, 412, 425, 398]","[295, 756, -1, -1, 1841, -1, -1, -1, 3446, -1, 4309, -1]","[434, 814, 1215, 1616, 1988, 2383, 2801, 3218, 3589, 4001, 4426, 4824]","[556, 934, 1334, 1737, 2111, 2505, 2922, 3341, 3714, 4125, 4551, 4951]","[380, 401, 401, 372, 395, 418, 417, 371, 412, 425, 398]","[391, 772, 1173, 1575, 1946, 2340, 2751, 3176, 3546, 3959, 4383, 4777]","[443, 824, 1226, 1627, 1997, 2393, 2812, 3228, 3598, 4011, 4437, 4835]","[557, 937, 1338, 1739, 2111, 2508, 2926, 3343, 3714, 4127, 4552, 4953]","[381, 402, 401, 370, 396, 419, 416, 370, 413, 426, 398]","[390, 773, 1172, 1575, 1946, 2342, 2758, 3176, 3547, 3960, 4384, 4781]","[444, 824, 1226, 1626, 1998, 2394, 2811, 3229, 3599, 4011, 4437, 4835]","[557, 938, 1340, 1742, 2112, 2509, 2928, 3344, 3715, 4129, 4554, 4955]","[380, 402, 400, 372, 396, 417, 418, 370, 412, 426, 398]","[391, 773, 1173, 1575, 1948, 2343, 2758, 3177, 3547, 3960, 4386, 4781]","[444, 825, 1226, 1627, 1998, 2394, 2812, 3229, 3600, 4012, 4437, 4835]","[560, 943, 1345, 1746, 2116, 2514, 2932, 3347, 3718, 4133, 4559, 4958]","[381, 401, 401, 371, 396, 418, 417, 371, 412, 425, 398]"
A00017,"[140, 530, 920, 1322, 1721, 2116, 2514, 2912, 3321, 3720, 4117, 4491]","[202, 594, 986, 1385, 1784, 2179, 2576, 2980, 3384, 3782, 4177, 4576]","[335, 724, 1115, 1516, 1838, 2307, 2704, 3109, 3525, 3814, 4313, 4610]","[392, 392, 399, 399, 395, 397, 404, 404, 398, 395, 399]","[130, 455, 639, 831, -1, 1312, -1, 2065, -1, 2458, -1, 2908, 3310, 3709, 4033, 4430]","[202, 522, 718, 914, 1149, 1385, 1746, 2107, 2306, 2524, 2742, 2979, 3383, 3782, 4107, 4505]","[-1, 592, -1, 984, 1219, -1, 1782, 2177, 2402, 2575, 2809, -1, -1, -1, 4176, 4574]","[320, 196, 196, 235, 236, 361, 361, 199, 218, 218, 237, 404, 399, 325, 398]","[126, 414, 836, 1194, 1591, 1997, 2460, 2830, 3224, 3707, 4048, 4430]","[215, 520, 912, 1311, 1709, 2104, 2502, 2906, 3307, 3795, 4104, 4503]","[334, 575, 1001, 1367, 1767, 2194, -1, 2999, -1, 3855, 4163, -1]","[305, 392, 399, 398, 395, 398, 404, 401, 488, 309, 399]","[87, 491, 874, 1277, 1677, 2076, 2469, 2862, 3250, 3679, 4073, 4465]","[217, 608, 1000, 1399, 1798, 2193, 2591, 2994, 3398, 3797, 4192, 4590]","[387, 787, 1178, -1, -1, 2367, 2765, 3170, -1, 3842, 4359, 4651]","[391, 392, 399, 399, 395, 398, 403, 404, 399, 395, 398]","[145, 537, 929, 1328, 1726, 2123, 2523, 2876, 3327, 3725, 4126, 4471]","[202, 594, 986, 1386, 1784, 2179, 2576, 2981, 3384, 3782, 4178, 4576]","[350, 705, 1082, 1484, 1839, 2296, 2674, 3090, 3492, 3953, 4299, -1]","[392, 392, 400, 398, 395, 397, 405, 403, 398, 396, 398]","[-1, 455, 867, -1, 1275, 1659, 1866, 2065, 2233, 2459, -1, 2864, -1, 3257, -1, 3626, 4047, -1, 4431, 4836]","[335, 521, 913, 1119, 1312, 1709, 1918, 2105, 2313, 2504, 2709, 2907, 3115, 3309, 3517, 3708, 4106, 4313, 4504, 4908]","[416, 589, 981, 1202, 1381, 1780, -1, 2176, 2399, 2573, -1, 2976, -1, 3379, 3593, 3779, 4174, -1, 4572, 4980]","[186, 392, 206, 193, 397, 209, 187, 208, 191, 205, 198, 208, 194, 208, 191, 398, 207, 191, 404]","[118, 471, 894, 1297, 1703, 2094, 2484, 2898, 3275, 3689, 4092, -1]","[194, 585, 977, 1377, 1775, 2170, 2568, 2972, 3375, 3774, 4169, 4568]","[309, 706, 1125, 1498, 1883, 2297, 2682, 3102, 3497, 3863, 4293, 4695]","[391, 392, 400, 398, 395, 398, 404, 403, 399, 395, 399]","[115, -1, 899, 1314, 1713, 2092, 2502, 2898, 3301, 3701, 4123, 4492]","[198, 590, 982, 1381, 1779, 2175, 2572, 2976, 3380, 3778, 4173, 4572]","[326, 716, 1111, 1505, 1912, 2301, 2696, 3107, 3494, 3900, 4306, 4697]","[392, 392, 399, 398, 396, 397, 404, 404, 398, 395, 399]","[123, 519, 914, 1309, 1711, 2104, 2501, 2912, 3309, 3621, 4102, 4495]","[200, 591, 983, 1383, 1781, 2176, 2574, 2977, 3381, 3779, 4175, 4573]","[325, 716, 1107, 1508, 1906, 2300, 2698, 3105, 3506, 3904, 4304, 4695]","[391, 392, 400, 398, 395, 398, 403, 404, 398, 396, 398]","[122, 519, 917, 1313, 1714, 2106, 2505, 2911, 3316, 3711, 4107, 4501]","[200, 592, 984, 1384, 1782, 2177, 2574, 2978, 3382, 3780, 4176, 4574]","[325, 717, 1110, 1511, 1905, 2301, 2697, 3104, 3505, 3903, 4307, 4615]","[392, 392, 400, 398, 395, 397, 404, 404, 398, 396, 398]","[-1, 533, 922, 1311, 1720, 2117, 2517, 2896, 3320, 3713, 4109, 4504]","[201, 593, 985, 1384, 1783, 2178, 2575, 2979, 3382, 3781, 4176, 4575]","[327, 719, 1110, 1510, 1909, 2303, 2701, 3116, 3530, 3910, 4309, 4613]","[392, 392, 399, 399, 395, 397, 404, 403, 399, 395, 399]","[140, 533, 926, 1323, 1721, 2115, 2517, 2922, 3323, 3720, 4116, 4516]","[202, 593, 985, 1385, 1783, 2178, 2576, 2980, 3383, 3781, 4177, 4575]","[331, 721, 1113, 1516, 1911, 2303, 2703, 3025, 3446, 3910, 4313, 4612]","[391, 392, 400, 398, 395, 398, 404, 403, 398, 396, 398]"
A00019,"[94, 421, 748, 1078, 1414, 1743, 2074, 2410, 2743, 3076, 3411, 3745, 4084, 4421, 4755]","[157, 484, 812, 1144, 1476, 1806, 2138, 2474, 2807, 3139, 3474, 3812, 4148, 4482, 4819]","[260, 588, 914, 1248, 1579, 1910, 2242, 2578, 2910, 3244, 3579, 3917, 4254, 4586, 4924]","[327, 328, 332, 332, 330, 332, 336, 333, 332, 335, 338, 336, 334, 337]","[80, 405, 733, 1067, 1400, 1730, 2054, 2394, 2730, 3063, 3394, 3733, 4063, 4405, 4740]","[158, 485, 813, 1145, 1478, 1807, 2139, 2475, 2809, 3141, 3475, 3813, 4149, 4483, 4820]","[267, 592, 918, 1253, 1583, 1914, 2248, 2582, 2915, 3249, 3583, 3923, 4258, 4589, 4930]","[327, 328, 332, 333, 329, 332, 336, 334, 332, 334, 338, 336, 334, 337]","[79, 406, 734, 1065, 1400, 1729, 2058, 2393, 2730, 3062, 3395, 3732, 4070, 4404, 4740]","[163, 489, 816, 1149, 1482, 1811, 2143, 2479, 2814, 3145, 3480, 3818, 4154, 4487, 4825]","[275, 598, 927, 1204, 1526, 1922, 2255, 2593, 2925, 3192, 3591, 3869, 4199, 4599, 4881]","[326, 327, 333, 333, 329, 332, 336, 335, 331, 335, 338, 336, 333, 338]","[49, 452, 701, 1103, 1370, 1701, 2096, 2360, 2766, 3031, 3433, 3770, 4111, 4370, 4711]","[173, 500, 828, 1160, 1493, 1822, 2154, 2490, 2824, 3155, 3490, 3828, 4164, 4498, 4835]","[-1, 650, -1, -1, 1648, -1, -1, -1, -1, -1, -1, -1, -1, -1, 4987]","[327, 328, 332, 333, 329, 332, 336, 334, 331, 335, 338, 336, 334, 337]","[97, 425, 749, 1083, 1418, 1745, 2078, 2413, 2746, 3080, 3414, 3751, 4087, 4423, 4758]","[156, 482, 811, 1144, 1475, 1804, 2137, 2474, 2806, 3138, 3473, 3811, 4147, 4481, 4819]","[250, 574, 907, 1241, 1571, 1901, 2231, 2571, 2903, 3233, 3570, 3909, 4241, 4581, 4918]","[326, 329, 333, 331, 329, 333, 337, 332, 332, 335, 338, 336, 334, 338]","[79, 406, 733, 1066, 1400, 1730, 2056, 2394, 2730, 3062, 3395, 3733, 4065, 4404, 4740]","[159, 487, 814, 1146, 1479, 1808, 2140, 2476, 2810, 3142, 3476, 3814, 4151, 4484, 4821]","[269, 594, 921, 1255, 1586, 1916, 2250, 2585, 2918, 3252, 3585, 3926, 4260, 4591, 4933]","[328, 327, 332, 333, 329, 332, 336, 334, 332, 334, 338, 337, 333, 337]","[391, 716, 1050, -1, 1714, 2047, 2332, 2715, 3044, 3381, 3720, 4059, 4388, 4727]","[474, 803, 1134, 1466, 1795, 2128, 2464, 2797, 3129, 3465, 3802, 4138, 4472, 4810]","[525, 852, 1187, 1539, 1866, 2214, 2538, 2850, 3204, 3531, 3853, 4198, 4532, 4859]","[329, 331, 332, 329, 333, 336, 333, 332, 336, 337, 336, 334, 338]","[66, 394, 721, 1054, 1386, 1717, 2050, 2387, 2718, 3049, 3385, 3721, 4059, 4390, 4728]","[152, 479, 806, 1139, 1471, 1800, 2133, 2469, 2802, 3134, 3469, 3807, 4143, 4476, 4814]","[256, 584, 912, 1244, 1576, 1907, 2238, 2574, 2908, 3240, 3575, 3913, 4251, 4584, 4920]","[327, 327, 333, 332, 329, 333, 336, 333, 332, 335, 338, 336, 333, 338]","[70, 397, 723, 1057, 1388, 1718, 2052, 2391, 2720, 3050, 3388, 3724, 4059, 4392, 4731]","[153, 480, 808, 1141, 1473, 1802, 2135, 2471, 2804, 3136, 3470, 3808, 4144, 4478, 4816]","[258, 585, 913, 1246, 1578, 1908, 2241, 2577, 2909, 3242, 3577, 3915, 4251, 4585, 4922]","[327, 328, 333, 332, 329, 333, 336, 333, 332, 334, 338, 336, 334, 338]","[70, 397, 726, 1058, 1391, 1718, 2054, 2392, 2720, 3051, 3388, 3726, 4062, 4392, 4732]","[155, 483, 810, 1143, 1475, 1804, 2137, 2473, 2806, 3138, 3473, 3810, 4146, 4480, 4818]","[259, 586, 914, 1248, 1579, 1909, 2242, 2578, 2910, 3243, 3578, 3916, 4252, 4586, 4924]","[328, 327, 333, 332, 329, 333, 336, 333, 332, 335, 337, 336, 334, 338]","[70, 396, 728, 1058, 1389, 1718, 2053, 2395, 2744, 3052, 3391, 3736, 4062, 4402, 4733]","[157, 484, 812, 1144, 1476, 1806, 2138, 2474, 2807, 3139, 3474, 3812, 4148, 4482, 4819]","[260, 587, 915, 1249, 1580, 1910, 2243, 2578, 2911, 3244, 3579, 3917, 4253, 4587, 4926]","[327, 328, 332, 332, 330, 332, 336, 333, 332, 335, 338, 336, 334, 337]","[82, 403, 748, 1065, 1403, 1721, 2055, 2395, 2745, 3051, 3390, 3750, 4062, 4422, 4734]","[157, 485, 813, 1145, 1477, 1806, 2139, 2475, 2808, 3140, 3475, 3813, 4149, 4483, 4820]","[260, 588, 916, 1249, 1581, 1910, 2244, 2580, 2912, 3246, 3581, 3918, 4253, 4588, 4926]","[328, 328, 332, 332, 329, 333, 336, 333, 332, 335, 338, 336, 334, 337]"
A00021,"[-1, 572, 1028, 1495, 1999, 2483, 2960, 3437, 3851, 4375, 4870]","[173, 628, 1084, 1550, 2054, 2538, 3025, 3493, 3954, 4430, 4925]","[305, 761, 1216, 1683, 2188, 2672, 3158, 3627, 4088, 4565, -1]","[455, 456, 466, 504, 484, 487, 468, 461, 476, 495]","[-1, 565, 1019, 1487, 1989, 2473, 2957, 3428, 3891, 4367, 4861]","[177, 633, 1088, 1554, 2058, 2542, 3029, 3497, 3958, 4434, 4930]","[307, 764, 1219, 1685, 2191, 2674, 3161, 3629, 4091, 4568, -1]","[456, 455, 466, 504, 484, 487, 468, 461, 476, 496]","[-1, 558, 1015, 1480, 1985, 2469, 2956, 3424, 3887, 4362, 4857]","[181, 637, 1092, 1557, 2062, 2547, 3033, 3501, 3961, 4438, 4934]","[336, 788, 1149, 1703, 2218, 2705, 3108, 3643, 4100, 4582, -1]","[456, 455, 465, 505, 485, 486, 468, 460, 477, 496]","[66, 472, 975, 1446, 1946, 2436, 2917, 3387, 3834, 4326, 4808]","[195, 651, 1106, 1572, 2076, 2560, 3047, 3515, 3976, 4452, 4948]","[-1, -1, -1, -1, -1, -1, -1, -1, -1, -1, -1]","[456, 455, 466, 504, 484, 487, 468, 461, 476, 496]","[-1, 522, 982, 1444, 1924, 2403, 2923, 3392, 3850, 4293, 4821]","[170, 626, 1080, 1547, 2051, 2535, 3022, 3490, 3950, 4427, 4923]","[303, 757, 1212, 1680, 2185, 2670, 3155, 3622, 4082, 4562, -1]","[456, 454, 467, 504, 484, 487, 468, 460, 477, 496]","[-1, 562, 1017, 1483, 1987, 2471, 2957, 3425, 3889, 4364, 4859]","[179, 635, 1090, 1555, 2060, 2544, 3031, 3499, 3960, 4436, 4931]","[311, 767, 1222, 1687, 2194, 2677, 3164, 3631, 4093, 4570, -1]","[456, 455, 465, 505, 484, 487, 468, 461, 476, 495]","[-1, 550, 1005, 1470, 1976, 2455, 2947, 3415, 3876, 4352, 4847]","[163, 619, 1074, 1540, 2044, 2528, 3015, 3483, 3945, 4421, 4915]","[220, 676, 1135, 1593, 2088, 2591, 3070, 3542, 4008, 4485, 4980]","[456, 455, 466, 504, 484, 487, 468, 462, 476, 494]","[-1, 554, 1007, 1473, 1938, 2464, 2952, 3418, 3877, 4355, 4852]","[169, 625, 1081, 1547, 2051, 2535, 3022, 3490, 3951, 4427, 4922]","[272, 761, 1215, 1680, 2186, 2669, 3160, 3623, 4084, 4561, 4984]","[456, 456, 466, 504, 484, 487, 468, 461, 476, 495]","[-1, 574, 1010, 1476, 1984, 2463, 2953, 3419, 3879, 4352, -1]","[171, 627, 1083, 1549, 2053, 2537, 3024, 3492, 3953, 4429, 4922]","[316, 765, 1218, 1687, 2196, 2675, 3164, 3627, 4097, 4470, -1]","[456, 456, 466, 504, 484, 487, 468, 461, 476, 493]","[-1, 557, 1014, 1480, 1984, 2466, 2956, 3429, 3885, 4360, -1]","[172, 628, 1084, 1550, 2054, 2538, 3025, 3493, 3954, 4430, 4923]","[309, 764, 1220, 1686, 2192, 2676, 3164, 3629, 4094, 4470, -1]","[456, 456, 466, 504, 484, 487, 468, 461, 476, 493]","[-1, 562, 1021, 1483, 1985, 2471, 2958, 3436, 3885, 4366, 4860]","[174, 630, 1085, 1551, 2055, 2539, 3026, 3494, 3955, 4431, 4927]","[308, 763, 1217, 1684, 2191, 2675, 3161, 3629, 4091, 4567, -1]","[456, 455, 466, 504, 484, 487, 468, 461, 476, 496]","[-1, 566, 1024, 1489, 1986, 2478, 2962, 3433, 3890, 4374, 4864]","[176, 632, 1087, 1553, 2057, 2541, 3028, 3496, 3957, 4433, 4929]","[307, 762, 1219, 1685, 2190, 2674, 3161, 3629, 4090, 4567, -1]","[456, 455, 466, 504, 484, 487, 468, 461, 476, 496]"
A00024,"[213, 561, 907, 1259, 1612, 1964, 2320, 2669, 3019, 3372, 3722, 4072, 4415, 4755]","[295, 643, 990, 1342, 1693, 2047, 2403, 2754, 3102, 3454, 3806, 4156, 4499, 4843]","[419, 766, 1115, 1465, 1816, 2171, 2526, 2877, 3226, 3578, 3929, 4280, 4622, 4971]","[348, 347, 352, 351, 354, 356, 351, 348, 352, 352, 350, 343, 344]","[204, 552, 899, 1249, 1602, 1955, 2312, 2660, 3010, 3364, 3715, 4063, 4408, 4752]","[297, 644, 992, 1343, 1695, 2049, 2404, 2755, 3104, 3456, 3808, 4157, 4500, 4845]","[425, 774, 1120, 1471, 1823, 2163, 2532, 2883, 3230, 3584, 3932, 4287, 4629, 4975]","[347, 348, 351, 352, 354, 355, 351, 349, 352, 352, 349, 343, 345]","[201, 548, 897, 1246, 1599, 1951, 2361, 2655, 3008, 3359, 3711, 4055, 4404, 4751]","[273, 665, 1013, 1366, 1672, 2027, 2424, 2773, 3081, 3434, 3786, 4136, 4478, 4822]","[319, 792, -1, 1418, 1718, 2076, -1, 2814, 3126, 3478, 3833, 4180, 4523, 4869]","[392, 348, 353, 306, 355, 397, 349, 308, 353, 352, 350, 342, 344]","[-1, 602, 949, -1, 1644, -1, -1, -1, -1, 3410, -1, 4106, 4456, -1]","[313, 660, 1008, 1359, 1711, 2065, 2421, 2772, 3120, 3472, 3824, 4174, 4516, 4861]","[-1, -1, -1, -1, -1, -1, -1, -1, -1, -1, -1, -1, -1, -1]","[347, 348, 351, 352, 354, 356, 351, 348, 352, 352, 350, 342, 345]","[221, 569, 916, 1268, 1618, 1970, 2324, 2678, 3026, 3378, 3729, 4080, 4423, 4769]","[294, 642, 990, 1341, 1693, 2047, 2402, 2753, 3101, 3454, 3806, 4155, 4498, 4843]","[415, 762, 1112, 1464, 1813, 2174, 2522, 2874, 3225, 3576, 3927, 4277, 4619, 4969]","[348, 348, 351, 352, 354, 355, 351, 348, 353, 352, 349, 343, 345]","[202, 550, 898, 1247, 1601, 1954, 2311, 2657, 3009, 3362, 3714, 4059, 4406, 4752]","[299, 646, 994, 1345, 1697, 2051, 2406, 2758, 3106, 3458, 3810, 4160, 4502, 4846]","[433, 781, 1128, 1479, 1830, 2156, 2542, 2892, 3240, 3591, 3946, 4205, 4637, 4980]","[347, 348, 351, 352, 354, 355, 352, 348, 352, 352, 350, 342, 344]","[197, 545, 881, 1246, 1585, 1949, 2300, 2655, 3001, 3356, 3706, 4059, 4398, 4747]","[275, 622, 970, 1321, 1673, 2028, 2382, 2734, 3082, 3434, 3786, 4136, 4479, 4824]","[-1, -1, -1, 1444, -1, -1, -1, -1, -1, -1, -1, 4250, 4598, -1]","[347, 348, 351, 352, 355, 354, 352, 348, 352, 352, 350, 343, 345]","[201, 547, 892, 1247, 1598, 1951, 2300, 2657, 3006, 3357, 3708, 4060, 4403, 4745]","[291, 638, 986, 1337, 1690, 2043, 2399, 2750, 3099, 3451, 3802, 4152, 4495, 4839]","[417, 764, 1112, 1463, 1813, 2169, 2525, 2875, 3224, 3576, 3928, 4278, 4619, 4968]","[347, 348, 351, 353, 353, 356, 351, 349, 352, 351, 350, 343, 344]","[224, 572, 917, 1271, 1598, 1951, 2306, 2682, 3030, 3359, 3735, 4089, 4430, 4747]","[295, 642, 990, 1341, 1693, 2046, 2402, 2753, 3101, 3453, 3805, 4155, 4498, 4843]","[415, 763, 1112, 1464, 1815, 2170, 2523, 2875, 3224, 3577, 3929, 4277, 4618, 4969]","[347, 348, 351, 352, 353, 356, 351, 348, 352, 352, 350, 343, 345]","[196, 551, 880, 1245, 1620, 1949, 2304, 2658, 3007, 3382, 3711, 4062, 4429, 4747]","[295, 642, 990, 1341, 1693, 2047, 2402, 2753, 3102, 3454, 3806, 4155, 4498, 4843]","[415, 766, 1113, 1465, 1815, 2171, 2523, 2876, 3226, 3577, 3928, 4278, 4620, 4971]","[347, 348, 351, 352, 354, 355, 351, 349, 352, 352, 349, 343, 345]","[-1, 550, 915, 1246, 1600, 1955, 2315, 2661, 3009, 3347, 3710, 4063, 4407, 4746]","[295, 643, 990, 1341, 1693, 2047, 2403, 2754, 3102, 3454, 3806, 4156, 4498, 4843]","[424, 765, 1112, 1467, 1813, 2173, 2525, 2875, 3226, 3580, 3930, 4276, 4623, 4970]","[348, 347, 351, 352, 354, 356, 351, 348, 352, 352, 350, 342, 345]","[197, 552, 898, 1249, 1602, 1951, 2312, 2662, 3011, 3359, 3713, 4063, 4409, 4748]","[296, 643, 991, 1342, 1694, 2048, 2403, 2754, 3103, 3455, 3807, 4156, 4499, 4844]","[383, 768, 1117, 1469, 1817, 2175, 2530, 2880, 3229, 3579, 3931, 4217, 4621, 4974]","[347, 348, 351, 352, 354, 355, 351, 349, 352, 352, 349, 343, 345]"
A00025,"[489, 909, 1325, 1784, 2223, 2645, 3094, 3544, 3994, 4439, 4889]","[557, 977, 1411, 1850, 2292, 2727, 3163, 3612, 4061, 4508, 4958]","[694, 1115, 1549, 1987, 2429, 2864, 3299, 3751, 4200, 4647, -1]","[420, 434, 439, 442, 435, 436, 449, 449, 447, 450]","[481, 899, 1331, 1769, 2212, 2650, 3087, 3537, 3982, 4432, 4879]","[557, 978, 1411, 1850, 2292, 2727, 3163, 3613, 4062, 4509, 4958]","[695, 1116, 1551, 1993, 2432, 2866, 3302, 3755, 4203, 4649, -1]","[421, 433, 439, 442, 435, 436, 450, 449, 447, 449]","[473, 896, 1331, 1769, 2207, 2649, 3082, 3530, 3978, 4429, 4877]","[559, 978, 1411, 1850, 2293, 2729, 3163, 3613, 4063, 4510, 4958]","[632, 1119, 1490, 2001, 2351, 2815, 3312, 3719, 4143, 4566, -1]","[419, 433, 439, 443, 436, 434, 450, 450, 447, 448]","[434, 1299, 1743, 2172, 2586, 3464, 3947, 4841]","[584, 1385, 1822, 2266, 2696, 3586, 4090, 4986]","[625, 1454, 1890, 2332, 2771, 3654, -1, -1]","[801, 437, 444, 430, 890, 504, 896]","[495, 867, 1298, 1790, 2229, 2627, 3100, 3548, 3999, 4403, 4897]","[555, 975, 1410, 1850, 2291, 2725, 3162, 3612, 4061, 4506, 4957]","[612, 1028, 1545, 1982, 2331, 2859, 3296, 3747, 4195, 4554, -1]","[420, 435, 440, 441, 434, 437, 450, 449, 445, 451]","[477, 898, 1331, 1769, 2210, 2649, 3085, 3534, 3980, 4430, 4878]","[558, 978, 1411, 1850, 2292, 2728, 3163, 3613, 4062, 4509, 4958]","[599, 1117, 1552, 1995, 2434, 2868, 3304, 3757, 4204, 4651, -1]","[420, 433, 439, 442, 436, 435, 450, 449, 447, 449]","[475, 896, 1327, 1766, 2207, 2644, 3079, 3529, 3979, 4423, 4873]","[546, 967, 1400, 1839, 2281, 2716, 3152, 3602, 4051, 4497, 4947]","[678, 1086, 1525, 1968, 2410, 2837, 3276, 3728, 4180, 4624, -1]","[421, 433, 439, 442, 435, 436, 450, 449, 446, 450]","[475, 897, 1329, 1769, 2211, 2646, 3082, 3532, 3982, 4429, 4877]","[549, 970, 1403, 1843, 2284, 2720, 3155, 3605, 4054, 4500, 4950]","[686, 1107, 1540, 1980, 2421, 2856, 3292, 3742, 4193, 4639, -1]","[421, 433, 440, 441, 436, 435, 450, 449, 446, 450]","[479, 902, 1332, 1772, 2213, 2652, 3086, 3536, 3986, 4433, 4884]","[557, 977, 1411, 1850, 2291, 2727, 3163, 3612, 4061, 4508, 4957]","[693, 1114, 1549, 1988, 2429, 2865, 3301, 3751, 4201, 4647, -1]","[420, 434, 439, 441, 436, 436, 449, 449, 447, 449]","[484, 904, 1334, 1774, 2216, 2652, 3089, 3538, 3988, 4435, 4885]","[557, 978, 1411, 1850, 2292, 2727, 3163, 3612, 4061, 4508, 4958]","[696, 1116, 1550, 1990, 2431, 2867, 3303, 3754, 4203, 4649, -1]","[421, 433, 439, 442, 435, 436, 449, 449, 447, 450]","[484, 905, 1333, 1775, 2217, 2651, 3091, 3540, 3988, 4436, 4885]","[557, 977, 1411, 1850, 2292, 2727, 3163, 3612, 4061, 4508, 4958]","[696, 1117, 1551, 1991, 2432, 2867, 3304, 3754, 4203, 4649, -1]","[420, 434, 439, 442, 435, 436, 449, 449, 447, 450]","[480, 904, 1333, 1774, 2214, 2651, 3090, 3538, 3987, 4434, 4886]","[557, 978, 1411, 1850, 2292, 2727, 3163, 3613, 4062, 4508, 4958]","[697, 1118, 1552, 1991, 2433, 2868, 3305, 3755, 4204, 4649, -1]","[421, 433, 439, 442, 435, 436, 450, 449, 446, 450]"
A00026,"[348, 932, 1414, 1916, 2393, 2877, 3365, 3855, 4363, 4844]","[464, 993, 1514, 2024, 2503, 2974, 3471, 3974, 4453, 4944]","[599, 1128, 1649, 2158, 2638, 3112, 3608, 4111, 4591, -1]","[529, 521, 510, 479, 471, 497, 503, 479, 491]","[398, 925, 1450, 1962, 2442, 2909, 3407, 3912, 4390, 4881]","[463, 993, 1514, 2024, 2503, 2974, 3472, 3974, 4453, 4944]","[596, 1128, 1652, 2158, 2640, 3112, 3607, 4112, 4590, -1]","[530, 521, 510, 479, 471, 498, 502, 479, 491]","[369, 924, 1449, 1925, 2404, 2880, 3406, 3875, 4351, 4845]","[463, 993, 1514, 2024, 2503, 2974, 3472, 3974, 4453, 4944]","[510, 1048, 1653, 2158, 2604, 3111, 3607, 4027, 4496, -1]","[530, 521, 510, 479, 471, 498, 502, 479, 491]","[357, 888, 1422, 1937, 2415, 2886, 3379, 3887, 4359, 4857]","[479, 1007, 1529, 2039, 2518, 2989, 3486, 3989, 4468, 4959]","[543, 1194, 1718, 2229, 2693, 3179, 3671, 4159, 4501, -1]","[528, 522, 510, 479, 471, 497, 503, 479, 491]","[378, 910, 1421, 1939, 2420, 2893, 3389, 3893, 4362, 4860]","[478, 1007, 1529, 2038, 2519, 2988, 3486, 3989, 4468, 4959]","[546, 1061, 1569, 2081, 2569, 3041, 3539, 4057, 4514, -1]","[529, 522, 509, 481, 469, 498, 503, 479, 491]","[397, 925, 1450, 1925, 2442, 2909, 3406, 3876, 4389, 4845]","[463, 993, 1514, 2024, 2503, 2974, 3472, 3974, 4453, 4944]","[510, 1128, 1652, 2158, 2642, 3111, 3607, 4112, 4495, -1]","[530, 521, 510, 479, 471, 498, 502, 479, 491]","[348, 880, 1408, 1957, 2389, 2855, 3354, 3865, 4387, 4835]","[454, 983, 1505, 2014, 2494, 2964, 3462, 3965, 4443, 4935]","[567, 1097, 1615, 2128, 2591, 3076, 3573, 4073, 4558, -1]","[529, 522, 509, 480, 470, 498, 503, 478, 492]","[398, 929, 1450, 1959, 2383, 2855, 3358, 3866, 4389, 4832]","[455, 984, 1506, 2016, 2495, 2965, 3463, 3966, 4445, 4936]","[582, 1112, 1634, 2147, 2624, 3094, 3593, 4095, 4575, -1]","[529, 522, 510, 479, 470, 498, 503, 479, 491]","[367, 928, 1443, 1961, 2415, 2853, 3429, 3889, 4389, 4878]","[464, 993, 1514, 2024, 2503, 2974, 3472, 3974, 4453, 4944]","[598, 1123, 1643, 2156, 2630, 3113, 3604, 4112, 4586, -1]","[529, 521, 510, 479, 471, 498, 502, 479, 491]","[400, 894, 1420, 1961, 2440, 2877, 3369, 3910, 4390, 4881]","[464, 993, 1515, 2024, 2504, 2974, 3472, 3974, 4453, 4945]","[598, 1127, 1649, 2159, 2638, 3108, 3607, 4110, 4588, -1]","[529, 522, 509, 480, 470, 498, 502, 479, 492]","[400, 930, 1413, 1961, 2440, 2911, 3409, 3910, 4354, 4833]","[464, 993, 1514, 2024, 2503, 2974, 3472, 3974, 4453, 4944]","[598, 1128, 1649, 2160, 2639, 3109, 3608, 4110, 4589, -1]","[529, 521, 510, 479, 471, 498, 502, 479, 491]","[350, 888, 1453, 1960, 2441, 2875, 3411, 3853, 4392, 4833]","[464, 993, 1514, 2024, 2503, 2974, 3472, 3974, 4453, 4944]","[601, 1130, 1651, 2160, 2639, 3109, 3609, 4112, 4589, -1]","[529, 521, 510, 479, 471, 498, 502, 479, 491]"
A00027,"[148, 536, 905, 1286, 1680, 2082, 2465, 2865, 3290, 3692, 4100, 4487, 4886]","[213, 600, 969, 1351, 1745, 2145, 2532, 2933, 3354, 3759, 4166, 4550, 4950]","[329, 714, 1084, 1467, 1860, 2261, 2647, 3049, 3469, 3876, 4280, 4667, -1]","[387, 369, 382, 394, 400, 387, 401, 421, 405, 407, 384, 400]","[136, 528, 898, 1281, 1673, 2073, 2461, 2860, 3282, 3687, 4095, 4480, 4879]","[217, 604, 973, 1355, 1748, 2149, 2536, 2936, 3358, 3762, 4170, 4554, 4954]","[334, 719, 1089, 1472, 1865, 2266, 2652, 3053, 3473, 3880, 4286, 4671, -1]","[387, 369, 382, 393, 401, 387, 400, 422, 404, 408, 384, 400]","[136, 525, 891, 1276, 1667, 2070, 2458, 2856, 3276, 3684, 4092, 4475, 4875]","[218, 605, 974, 1356, 1750, 2151, 2537, 2937, 3359, 3764, 4172, 4555, 4955]","[342, 730, 1097, 1480, 1874, 2275, 2660, 3061, 3483, 3889, 4296, 4678, -1]","[387, 369, 382, 394, 401, 386, 400, 422, 405, 408, 383, 400]","[101, 496, 851, 1244, 1628, 2109, 2421, 2830, 3318, 3652, 4136, 4520, 4919]","[192, 619, 995, 1371, 1763, 2164, 2551, 2952, 3373, 3778, 4186, 4569, 4969]","[241, -1, -1, -1, -1, -1, -1, -1, 3531, -1, -1, -1, -1]","[427, 376, 376, 392, 401, 387, 401, 421, 405, 408, 383, 400]","[108, 541, 866, 1292, 1642, 2045, 2430, 2874, 3252, 3660, 4067, 4446, 4892]","[205, 591, 960, 1343, 1737, 2137, 2523, 2924, 3345, 3751, 4157, 4541, 4941]","[325, 709, 1077, 1461, 1855, 2255, 2640, 3042, 3464, 3871, 4274, 4657, -1]","[386, 369, 383, 394, 400, 386, 401, 421, 406, 406, 384, 400]","[136, 527, 895, 1279, 1671, 2072, 2460, 2859, 3281, 3686, 4094, 4478, 4878]","[217, 604, 973, 1355, 1749, 2150, 2536, 2937, 3358, 3763, 4171, 4555, 4954]","[336, 723, 1092, 1474, 1867, 2269, 2654, 3055, 3476, 3882, 4289, 4673, -1]","[387, 369, 382, 394, 401, 386, 401, 421, 405, 408, 384, 399]","[128, 515, 884, 1264, 1660, 2061, 2445, 2847, 3270, 3674, 4082, 4465, 4865]","[204, 591, 960, 1341, 1735, 2137, 2523, 2923, 3344, 3749, 4158, 4541, 4940]","[334, 647, 1069, 1468, 1866, 2269, 2641, 3049, 3471, 3872, 4222, 4674, -1]","[387, 369, 381, 394, 402, 386, 400, 421, 405, 409, 383, 399]","[127, 515, 885, 1264, 1663, 2056, 2446, 2847, 3273, 3678, 4081, 4466, 4867]","[203, 590, 959, 1341, 1734, 2135, 2522, 2922, 3343, 3749, 4156, 4540, 4940]","[327, 713, 1083, 1465, 1859, 2260, 2645, 3046, 3469, 3874, 4280, 4664, 4988]","[387, 369, 382, 393, 401, 387, 400, 421, 406, 407, 384, 400]","[133, 522, 886, 1273, 1663, 2070, 2451, 2856, 3273, 3679, 4096, 4467, 4869]","[213, 600, 969, 1351, 1745, 2145, 2532, 2933, 3354, 3759, 4166, 4550, 4950]","[329, 716, 1084, 1467, 1861, 2262, 2648, 3049, 3472, 3876, 4282, 4667, -1]","[387, 369, 382, 394, 400, 387, 401, 421, 405, 407, 384, 400]","[142, 521, 900, 1267, 1666, 2071, 2455, 2864, 3281, 3674, 4098, 4484, 4882]","[215, 602, 971, 1353, 1746, 2147, 2533, 2934, 3356, 3760, 4168, 4552, 4952]","[329, 718, 1085, 1469, 1863, 2263, 2648, 3051, 3474, 3876, 4285, 4668, -1]","[387, 369, 382, 393, 401, 386, 401, 422, 404, 408, 384, 400]","[155, 520, 900, 1282, 1677, 2072, 2453, 2862, -1, 3662, 4105, 4485, 4885]","[216, 602, 971, 1353, 1747, 2148, 2534, 2935, 3356, 3761, 4169, 4552, 4952]","[331, 718, 1085, 1469, 1864, 2265, 2652, 3051, 3475, 3878, 4284, 4665, -1]","[386, 369, 382, 394, 401, 386, 401, 421, 405, 408, 383, 400]","[146, 535, 903, 1284, 1678, 2078, 2463, 2864, 3288, 3686, 4062, 4486, 4883]","[216, 603, 972, 1354, 1748, 2148, 2535, 2935, 3357, 3762, 4169, 4553, 4953]","[331, 719, 1088, 1470, 1864, 2264, 2651, 3052, 3473, 3878, 4285, 4670, -1]","[387, 369, 382, 394, 400, 387, 400, 422, 405, 407, 384, 400]"
A00028,"[202, 595, 973, 1356, 1773, 2150, 2547, 2973, 3420, 3833, 4259, 4684]","[274, 649, 1036, 1427, 1828, 2219, 2613, 3041, 3473, 3900, 4316, 4752]","[383, 755, 1143, 1534, 1936, 2327, 2721, 3152, 3583, 4012, 4425, 4862]","[375, 387, 391, 401, 391, 394, 428, 432, 427, 416, 436]","[201, 575, 959, 1354, 1755, 2145, 2541, 2969, 3409, 3830, 4245, 4680]","[273, 648, 1035, 1426, 1828, 2219, 2613, 3041, 3473, 3900, 4315, 4751]","[387, 759, 1146, 1537, 1939, 2331, 2726, 3156, 3586, 4016, 4431, 4867]","[375, 387, 391, 402, 391, 394, 428, 432, 427, 415, 436]","[200, 573, 957, 1307, 1747, 2140, 2535, 2965, 3399, 3824, 4240, 4677]","[272, 647, 1033, 1425, 1827, 2218, 2612, 3040, 3473, 3899, 4314, 4750]","[327, 769, 1076, 1464, 1960, 2346, 2646, 3173, 3604, 4030, 4348, 4783]","[375, 386, 392, 402, 391, 394, 428, 433, 426, 415, 436]","[171, 557, 943, 1337, 1762, 2108, 2514, 2948, 3381, 3807, 4221, 4656]","[256, 631, 1052, 1444, 1845, 2202, 2596, 3024, 3456, 3917, 4297, 4734]","[296, 672, 1198, 1600, -1, 2241, 2639, 3065, 3497, 4067, 4339, 4777]","[375, 421, 392, 401, 357, 394, 428, 432, 461, 380, 437]","[224, 597, 983, 1358, 1774, 2166, 2562, 2991, 3421, 3835, 4263, 4667]","[280, 655, 1038, 1428, 1829, 2219, 2615, 3042, 3473, 3900, 4317, 4753]","[372, 751, 1139, 1532, 1933, 2323, 2717, 3148, 3580, 4005, 4419, 4857]","[375, 383, 390, 401, 390, 396, 427, 431, 427, 417, 436]","[200, 574, 958, 1352, 1753, 2143, 2539, 2968, 3408, 3828, 4242, 4679]","[273, 648, 1034, 1426, 1828, 2219, 2613, 3041, 3473, 3900, 4315, 4751]","[389, 763, 1149, 1540, 1942, 2334, 2730, 3160, 3592, 4019, 4434, 4871]","[375, 386, 392, 402, 391, 394, 428, 432, 427, 415, 436]","[201, 574, 960, 1351, 1751, 2142, 2537, 2965, 3396, 3826, 4241, 4676]","[265, 643, 1029, 1420, 1822, 2210, 2605, 3032, 3464, 3891, 4307, 4743]","[373, 752, 1139, 1529, 1931, 2325, 2718, 3147, 3580, 4007, 4423, 4859]","[378, 386, 391, 402, 388, 395, 427, 432, 427, 416, 436]","[200, 577, 963, 1353, 1754, 2146, 2541, 2969, 3399, 3828, 4244, 4680]","[269, 646, 1032, 1423, 1824, 2215, 2610, 3037, 3469, 3896, 4312, 4748]","[377, 752, 1139, 1531, 1933, 2324, 2718, 3147, 3580, 4006, 4422, 4858]","[377, 386, 391, 401, 391, 395, 427, 432, 427, 416, 436]","[192, 578, 962, 1354, 1755, 2146, 2544, 2969, 3400, 3829, 4245, 4681]","[272, 648, 1034, 1425, 1827, 2218, 2612, 3040, 3472, 3899, 4314, 4751]","[379, 754, 1141, 1533, 1935, 2325, 2720, 3149, 3581, 4008, 4424, 4860]","[376, 386, 391, 402, 391, 394, 428, 432, 427, 415, 437]","[202, 577, 964, 1353, 1754, 2146, 2543, 2970, 3400, 3832, 4246, 4681]","[273, 648, 1035, 1426, 1827, 2219, 2613, 3041, 3473, 3900, 4315, 4751]","[380, 756, 1143, 1534, 1937, 2327, 2722, 3151, 3583, 4010, 4426, 4862]","[375, 387, 391, 401, 392, 394, 428, 432, 427, 415, 436]","[203, 575, 968, 1353, 1754, 2147, 2543, 2971, 3399, 3830, 4246, 4681]","[274, 649, 1035, 1426, 1828, 2219, 2613, 3041, 3473, 3900, 4316, 4752]","[381, 759, 1144, 1536, 1937, 2327, 2724, 3152, 3584, 4011, 4427, 4864]","[375, 386, 391, 402, 391, 394, 428, 432, 427, 416, 436]","[203, 577, 966, 1354, 1755, 2147, 2543, 2970, 3399, 3831, 4247, 4681]","[274, 649, 1035, 1426, 1828, 2219, 2614, 3042, 3473, 3900, 4316, 4752]","[381, 758, 1145, 1537, 1938, 2329, 2724, 3154, 3585, 4013, 4428, 4865]","[375, 386, 391, 402, 391, 395, 428, 431, 427, 416, 436]"
A00031,"[411, 786, 1165, 1569, 1961, 2349, 2746, 3156, 3539, 3958, 4357, 4746]","[479, 858, 1254, 1652, 2033, 2415, 2834, 3238, 3630, 4037, 4427, 4808]","[592, 970, 1371, 1767, 2144, 2525, 2949, 3359, 3746, 4154, 4540, 4926]","[379, 396, 398, 381, 382, 419, 404, 392, 407, 390, 381]","[402, 781, 1177, 1575, 1954, 2338, 2757, 3162, 3551, 3962, 4349, 4732]","[481, 860, 1256, 1654, 2032, 2416, 2835, 3240, 3631, 4039, 4428, 4810]","[595, 975, 1371, 1773, 2148, 2531, 2951, 3358, 3748, 4155, 4544, 4927]","[379, 396, 398, 378, 384, 419, 405, 391, 408, 389, 382]","[399, 776, 1178, 1577, 1950, 2335, 2758, 3164, 3551, 3963, 4346, 4730]","[486, 864, 1263, 1661, 2034, 2421, 2842, 3245, 3637, 4046, 4435, 4815]","[519, 918, 1303, 1724, 2094, 2470, 2882, 3286, 3677, 4096, 4485, 4850]","[378, 399, 398, 373, 387, 421, 403, 392, 409, 389, 380]","[362, 745, 1149, 1543, 1911, 2301, 2724, 3130, 3521, 3930, 4320, 4701]","[461, 836, 1237, 1634, 2003, 2397, 2815, 3220, 3612, 4019, 4410, 4792]","[516, 891, 1282, 1695, 2061, 2448, 2876, 3284, 3676, 4074, 4454, 4848]","[375, 401, 397, 369, 394, 418, 405, 392, 407, 391, 382]","[374, 799, 1164, 1599, 1923, 2313, 2773, 3154, 3568, 3955, 4364, 4748]","[476, 855, 1253, 1651, 2026, 2413, 2832, 3235, 3628, 4036, 4425, 4806]","[589, 904, 1289, 1710, 2081, 2522, 2867, 3274, 3692, 4087, 4469, 4863]","[379, 398, 398, 375, 387, 419, 403, 393, 408, 389, 381]","[401, 778, 1178, 1576, 1952, 2337, 2757, 3163, 3551, 3963, 4348, 4731]","[482, 861, 1257, 1656, 2033, 2417, 2836, 3241, 3633, 4040, 4429, 4812]","[598, 921, 1306, 1726, 2152, 2536, 2885, 3356, 3678, 4161, 4551, 4850]","[379, 396, 399, 377, 384, 419, 405, 392, 407, 389, 383]","[388, 770, 1161, 1562, 1942, 2322, 2739, 3144, 3532, 3942, 4335, 4716]","[466, 846, 1241, 1640, 2017, 2401, 2820, 3225, 3616, 4024, 4414, 4795]","[567, 889, 1300, 1719, 2132, 2534, 2926, 3280, 3742, 4076, 4464, 4908]","[380, 395, 399, 377, 384, 419, 405, 391, 408, 390, 381]","[93, 384, 766, 1164, 1563, 1935, 2325, 2747, 3145, 3540, 3945, 4336, 4720]","[219, 470, 848, 1244, 1643, 2021, 2405, 2824, 3229, 3620, 4028, 4418, 4799]","[383, 588, 968, 1363, 1763, 2138, 2524, 2945, 3347, 3739, 4148, 4537, 4918]","[251, 378, 396, 399, 378, 384, 419, 405, 391, 408, 390, 381]","[387, 765, 1169, 1564, 1937, 2326, 2745, 3146, 3534, 3944, 4332, 4714]","[480, 860, 1256, 1654, 2031, 2416, 2836, 3239, 3632, 4039, 4428, 4811]","[591, 967, 1366, 1767, 2142, 2528, 2948, 3352, 3736, 4151, 4540, 4922]","[380, 396, 398, 377, 385, 420, 403, 393, 407, 389, 383]","[389, 771, 1171, 1577, 1940, 2329, 2749, 3156, 3546, 3941, 4342, 4715]","[481, 860, 1256, 1655, 2032, 2417, 2836, 3240, 3632, 4040, 4429, 4811]","[594, 973, 1369, 1768, 2145, 2530, 2949, 3353, 3747, 4153, 4543, 4967]","[379, 396, 399, 377, 385, 419, 404, 392, 408, 389, 382]","[388, 772, 1177, 1577, 1940, 2330, 2757, 3158, 3549, 3961, 4337, 4714]","[481, 860, 1256, 1654, 2032, 2416, 2836, 3240, 3632, 4039, 4428, 4811]","[595, 974, 1368, 1770, 2147, 2533, 2951, 3354, 3747, 4155, 4543, 4928]","[379, 396, 398, 378, 384, 420, 404, 392, 407, 389, 383]","[394, 771, 1177, 1578, 1933, 2330, 2755, 3171, 3549, 3968, 4342, 4729]","[480, 860, 1256, 1654, 2031, 2416, 2835, 3239, 3631, 4039, 4428, 4810]","[596, 976, 1371, 1771, 2148, 2535, 2951, 3355, 3749, 4156, 4544, 4928]","[380, 396, 398, 377, 385, 419, 404, 392, 408, 389, 382]"
A00032,"[-1, 539, 979, 1424, 1827, 2304, 2753, 3199, 3647, 4087, 4537]","[162, 595, 1035, 1477, 1916, 2359, 2809, 3258, 3701, 4144, 4592]","[290, 725, 1165, 1605, 2045, 2488, 2939, 3388, 3829, 4275, 4722]","[433, 440, 442, 439, 443, 450, 449, 443, 443, 448]","[-1, 524, 964, 1405, 1844, 2291, 2739, 3188, 3629, 4075, 4519]","[159, 592, 1032, 1474, 1914, 2356, 2805, 3255, 3698, 4141, 4589]","[292, 725, 1165, 1607, 2047, 2489, 2941, 3389, 3839, 4276, 4723]","[433, 440, 442, 440, 442, 449, 450, 443, 443, 448]","[517, 955, 1397, 1839, 2254, 2732, 3180, 3625, 4070, 4511]","[583, 1023, 1464, 1904, 2347, 2796, 3245, 3689, 4133, 4579]","[753, 1190, 1635, 2078, 2524, -1, 3423, 3858, -1, 4756]","[440, 441, 440, 443, 449, 449, 444, 444, 446]","[52, 497, 933, 1378, 1816, 2239, 2708, 3115, 3641, 4045, 4492]","[177, 611, 1051, 1493, 1932, 2375, 2824, 3274, 3716, 4160, 4608]","[-1, -1, 1086, -1, 2144, -1, 3016, -1, 3913, -1, -1]","[434, 440, 442, 439, 443, 449, 450, 442, 444, 448]","[-1, 542, 937, 1425, 1863, 2259, 2756, 3160, 3606, 4040, 4497]","[164, 597, 1037, 1478, 1918, 2361, 2810, 3259, 3703, 4146, 4593]","[289, 725, 1165, 1602, 2044, 2486, 2938, 3387, 3824, 4273, 4722]","[433, 440, 441, 440, 443, 449, 449, 444, 443, 447]","[-1, 521, 959, 1400, 1841, 2289, 2735, 3182, 3627, 4073, 4514, 4886]","[156, 589, 1028, 1469, 1910, 2353, 2802, 3250, 3695, 4138, 4585, 4963]","[208, 726, 1164, 1609, 2049, 2491, 2943, 3390, 3853, 4278, 4724, -1]","[433, 439, 441, 441, 443, 449, 448, 445, 443, 447, 378]","[514, 954, 1395, 1834, 2278, 2727, 3177, 3619, 4062, 4509, 4874]","[581, 1021, 1463, 1903, 2345, 2795, 3244, 3687, 4130, 4578, 4958]","[625, 1133, 1514, 2002, 2391, 2878, 3297, 3735, 4234, 4624, -1]","[440, 442, 440, 442, 450, 449, 443, 443, 448, 380]","[-1, 516, 955, 1396, 1836, 2279, 2726, 3176, 3621, 4064, 4514, 4881]","[156, 589, 1029, 1471, 1910, 2353, 2803, 3251, 3695, 4138, 4586, 4961]","[208, 641, 1156, 1596, 2035, 2476, 2927, 3375, 3819, 4264, 4711, -1]","[433, 440, 442, 439, 443, 450, 448, 444, 443, 448, 375]","[-1, 517, 957, 1399, 1837, 2278, 2729, 3180, 3623, 4066, 4514]","[158, 591, 1031, 1473, 1912, 2355, 2805, 3254, 3697, 4140, 4588]","[280, 715, 1156, 1598, 2038, 2480, 2930, 3379, 3823, 4267, 4715]","[433, 440, 442, 439, 443, 450, 449, 443, 443, 448]","[-1, 521, 958, 1399, 1837, 2282, 2731, 3119, 3623, 4069, 4517]","[159, 592, 1032, 1474, 1914, 2356, 2806, 3255, 3698, 4141, 4589]","[286, 720, 1159, 1603, 2042, 2484, 2935, 3384, 3827, 4269, 4720]","[433, 440, 442, 440, 442, 450, 449, 443, 443, 448]","[-1, 518, 961, 1403, 1840, 2252, 2733, 3178, 3624, 4065, 4520]","[160, 593, 1033, 1475, 1915, 2357, 2807, 3256, 3699, 4142, 4590]","[289, 722, 1162, 1605, 2044, 2487, 2937, 3387, 3830, 4273, 4722]","[433, 440, 442, 440, 442, 450, 449, 443, 443, 448]","[-1, 529, 959, 1360, 1837, 2290, 2728, 3152, 3627, 4058, 4542]","[161, 595, 1034, 1476, 1916, 2359, 2808, 3257, 3701, 4144, 4591]","[292, 724, 1164, 1607, 2046, 2490, 2939, 3387, 3831, 4276, 4723]","[434, 439, 442, 440, 443, 449, 449, 444, 443, 447]"
A00033,"[470, 897, 1327, 1746, 2152, 2580, 3009, 3436, 3833, 4260, 4689]","[531, 959, 1391, 1809, 2214, 2642, 3073, 3497, 3898, 4323, 4753]","[667, 1094, 1527, 1945, 2347, 2777, 3210, 3634, 4032, 4459, 4890]","[428, 432, 418, 405, 428, 431, 424, 401, 425, 430]","[467, 894, 1325, 1741, 2149, 2576, 3005, 3434, 3832, 4259, 4684]","[532, 960, 1392, 1810, 2215, 2642, 3074, 3498, 3899, 4324, 4754]","[669, 1095, 1527, 1945, 2350, 2779, 3209, 3637, 4035, 4460, 4891]","[428, 432, 418, 405, 427, 432, 424, 401, 425, 430]","[454, 881, 1311, 1731, 2135, 2564, 2992, 3419, 3818, 4246, 4673]","[533, 961, 1392, 1811, 2216, 2643, 3074, 3499, 3900, 4325, 4754]","[587, 1098, 1431, 1850, 2262, 2698, 3135, 3651, 3933, 4378, 4892]","[428, 431, 419, 405, 427, 431, 425, 401, 425, 429]","[440, 866, 1294, 1716, 2095, 2549, 2935, 3396, 3806, 4196, 4653]","[549, 977, 1409, 1827, 2232, 2659, 3091, 3515, 3916, 4341, 4771]","[737, -1, -1, 2009, 2421, -1, 3258, 3694, 4096, -1, 4941]","[428, 432, 418, 405, 427, 432, 424, 401, 425, 430]","[474, 901, 1232, 1720, 2107, 2537, 3010, 3437, 3839, 4225, 4691]","[525, 955, 1327, 1803, 2208, 2584, 3070, 3493, 3892, 4319, 4750]","[655, 1086, 1389, 1946, 2345, 2637, 3213, 3631, 4029, 4458, 4887]","[430, 372, 476, 405, 376, 486, 423, 399, 427, 431]","[463, 884, 1312, 1733, 2146, 2567, 2994, 3421, 3823, 4252, 4675]","[533, 960, 1392, 1811, 2215, 2643, 3074, 3498, 3899, 4324, 4754]","[670, 1096, 1527, 1870, 2354, 2780, 3208, 3531, 4038, 4460, 4892]","[427, 432, 419, 404, 428, 431, 424, 401, 425, 430]","[461, 887, 1313, 1734, 2142, 2570, 2995, 3420, 3827, 4252, 4678]","[524, 951, 1383, 1802, 2207, 2634, 3065, 3490, 3891, 4315, 4745]","[643, 1070, 1503, 1922, 2329, 2759, 3187, 3603, 4007, 4434, 4867]","[427, 432, 419, 405, 427, 431, 425, 401, 424, 430]","[406, 891, 1322, 1676, 2145, 2569, 3002, 3430, 3791, 4255, 4682]","[527, 955, 1387, 1805, 2209, 2637, 3068, 3493, 3894, 4319, 4749]","[660, 1085, 1516, 1937, 2343, 2768, 3200, 3635, 4028, 4452, 4880]","[428, 432, 418, 404, 428, 431, 425, 401, 425, 430]","[465, 892, 1322, 1742, 2148, 2575, 3004, 3431, 3831, 4257, 4684]","[529, 957, 1389, 1807, 2212, 2639, 3071, 3495, 3896, 4321, 4751]","[659, 1087, 1521, 1939, 2343, 2770, 3201, 3627, 4027, 4450, 4883]","[428, 432, 418, 405, 427, 432, 424, 401, 425, 430]","[466, 893, 1323, 1743, 2148, 2574, 3004, 3432, 3831, 4257, 4686]","[530, 958, 1390, 1808, 2213, 2641, 3072, 3496, 3897, 4322, 4752]","[664, 1094, 1526, 1944, 2347, 2776, 3208, 3632, 4032, 4459, 4889]","[428, 432, 418, 405, 428, 431, 424, 401, 425, 430]","[467, 892, 1329, 1742, 2150, 2577, 3003, 3432, 3831, 4257, 4686]","[531, 959, 1391, 1809, 2214, 2641, 3073, 3497, 3898, 4323, 4753]","[668, 1092, 1528, 1945, 2349, 2777, 3207, 3634, 4033, 4460, 4891]","[428, 432, 418, 405, 427, 432, 424, 401, 425, 430]","[469, 894, 1337, 1745, 2151, 2579, 3007, 3437, 3833, 4263, 4687]","[532, 960, 1392, 1810, 2214, 2642, 3074, 3498, 3899, 4324, 4754]","[665, 1094, 1523, 1944, 2348, 2777, 3212, 3634, 4033, 4458, 4890]","[428, 432, 418, 404, 428, 432, 424, 401, 425, 430]"
A00035,"[255, 643, 1040, 1418, 1806, 2189, 2598, 3009, 3404, 3776, 4184, 4567]","[328, 724, 1120, 1499, 1885, 2278, 2686, 3095, 3481, 3865, 4258, 4661]","[380, 764, 1163, 1541, 1943, 2332, 2794, 3217, 3521, 3917, 4379, 4706]","[396, 396, 379, 386, 393, 408, 409, 386, 384, 393, 403]","[244, 641, 1037, 1414, 1803, 2191, 2597, 3009, 3398, 3778, 4170, 4572]","[332, 729, 1125, 1505, 1889, 2282, 2688, 3099, 3487, 3868, 4261, 4664]","[452, 850, 1243, 1616, 2010, 2404, 2804, 3219, 3601, 3987, 4380, 4778]","[397, 396, 380, 384, 393, 406, 411, 388, 381, 393, 403]","[242, 638, 1035, 1413, 1800, 2192, 2597, 3008, 3396, 3778, 4171, 4573]","[332, 729, 1126, 1505, 1890, 2282, 2689, 3100, 3487, 3868, 4261, 4664]","[453, 855, 1246, 1628, 2012, 2404, 2812, 3222, 3603, 3989, 4383, 4787]","[397, 397, 379, 385, 392, 407, 411, 387, 381, 393, 403]","[287, 674, 1080, 1462, 1832, 2226, 2628, 3031, 3422, 3824, 4224, 4619]","[346, 743, 1139, 1519, 1904, 2296, 2702, 3113, 3501, 3882, 4274, 4678]","[515, 916, 1174, 1555, 1957, 2457, 2870, 3268, 3665, 4031, 4443, 4718]","[397, 396, 380, 385, 392, 406, 411, 388, 381, 392, 404]","[277, 663, 1002, 1385, 1824, 2213, 2620, 3040, 3364, 3807, 4200, 4607]","[349, 713, 1110, 1489, 1893, 2298, 2705, 3084, 3471, 3885, 4277, 4682]","[508, 750, 1147, 1527, 1970, 2367, 2738, 3120, 3508, 3945, 4429, 4731]","[364, 397, 379, 404, 405, 407, 379, 387, 414, 392, 405]","[242, 640, 1036, 1413, 1802, 2192, 2597, 3009, 3397, 3778, 4171, 4572]","[332, 729, 1125, 1505, 1890, 2282, 2689, 3099, 3487, 3868, 4261, 4664]","[452, 852, 1244, 1623, 2011, 2404, 2806, 3219, 3602, 3988, 4381, 4788]","[397, 396, 380, 385, 392, 407, 410, 388, 381, 393, 403]","[234, 629, 1024, 1406, 1791, 2183, 2590, 3000, 3387, 3770, 4163, 4564]","[324, 721, 1118, 1498, 1882, 2274, 2681, 3092, 3480, 3861, 4253, 4656]","[359, 822, 1217, 1535, 1986, 2378, 2787, 3196, 3517, 3967, 4357, 4760]","[397, 397, 380, 384, 392, 407, 411, 388, 381, 392, 403]","[254, 630, 1031, 1416, 1794, 2185, 2592, 2999, 3406, 3773, 4164, 4566]","[324, 721, 1118, 1497, 1882, 2274, 2681, 3092, 3480, 3861, 4253, 4656]","[434, 829, 1228, 1606, 1992, 2384, 2792, 3204, 3586, 3971, 4365, 4767]","[397, 397, 379, 385, 392, 407, 411, 388, 381, 392, 403]","[247, 638, 1034, 1412, 1799, 2189, 2598, 3008, 3394, 3776, 4168, 4572]","[329, 726, 1122, 1501, 1886, 2279, 2686, 3096, 3483, 3865, 4258, 4661]","[439, 835, 1231, 1609, 1996, 2389, 2797, 3204, 3593, 3974, 4369, 4773]","[397, 396, 379, 385, 393, 407, 410, 387, 382, 393, 403]","[246, 639, 1035, 1414, 1801, 2190, 2598, 3011, 3415, 3783, 4169, 4573]","[331, 728, 1124, 1504, 1889, 2281, 2688, 3098, 3486, 3867, 4260, 4663]","[444, 842, 1236, 1613, 2001, 2394, 2800, 3207, 3600, 3979, 4374, 4777]","[397, 396, 380, 385, 392, 407, 410, 388, 381, 393, 403]","[248, 640, 1038, 1414, 1803, 2191, 2600, 3012, 3399, 3780, 4173, 4576]","[332, 729, 1125, 1504, 1889, 2282, 2688, 3099, 3486, 3868, 4261, 4664]","[449, 847, 1240, 1616, 2005, 2399, 2805, 3216, 3602, 3981, 4380, 4781]","[397, 396, 379, 385, 393, 406, 411, 387, 382, 393, 403]","[246, 640, 1038, 1415, 1802, 2192, 2599, 3012, 3399, 3780, 4172, 4573]","[332, 729, 1125, 1505, 1890, 2282, 2689, 3099, 3487, 3868, 4261, 4664]","[452, 849, 1244, 1620, 2008, 2404, 2807, 3220, 3605, 3983, 4381, 4783]","[397, 396, 380, 385, 392, 407, 410, 388, 381, 393, 403]"
A00038,"[64, 372, 733, 1097, 1455, 1811, 2172, 2549, 2942, 3341, 3742, 4137, 4519, 4898]","[185, 424, 786, 1151, 1510, 1866, 2226, 2603, 2997, 3395, 3795, 4191, 4574, 4953]","[-1, 542, 904, 1269, 1628, 1984, 2345, 2722, 3116, 3515, 3915, 4311, 4694, -1]","[239, 362, 365, 359, 356, 360, 377, 394, 398, 400, 396, 383, 379]","[369, 729, 1092, 1447, 1801, 2160, 2537, 2931, 3328, 3728, 4124, 4509, 4888]","[425, 787, 1152, 1512, 1867, 2227, 2604, 2997, 3396, 3796, 4192, 4575, 4954]","[541, 903, 1269, 1628, 1984, 2345, 2722, 3116, 3514, 3915, 4310, 4694, -1]","[362, 365, 360, 355, 360, 377, 393, 399, 400, 396, 383, 379]","[339, 712, 1081, 1439, 1796, 2156, 2533, 2926, 3324, 3592, 4056, 4503, 4883]","[427, 788, 1154, 1514, 1868, 2228, 2605, 2999, 3398, 3725, 4120, 4577, 4955]","[472, 834, 1195, 1573, 1984, 2345, 2723, 3036, 3439, 3797, 4192, 4623, -1]","[361, 366, 360, 354, 360, 377, 394, 399, 327, 395, 457, 378]","[311, 699, 1064, 1418, 1769, 2126, 2511, 2885, 3285, 3704, 4081, 4480, 4859]","[440, 802, 1167, 1527, 1882, 2242, 2619, 3013, 3412, 3811, 4207, 4590, 4969]","[-1, -1, 1318, -1, -1, -1, -1, -1, -1, -1, -1, -1, -1]","[362, 365, 360, 355, 360, 377, 394, 399, 399, 396, 383, 379]","[-1, 375, 737, 1101, 1459, 1816, 2176, 2502, -1, 2875, 3068, 3290, 3450, 3654, -1, 4081, 4230, 4522, 4902]","[185, 422, 784, 1150, 1508, 1883, 2243, 2553, 2724, 2945, 3118, 3344, 3517, 3745, 3917, 4141, 4312, 4571, 4970]","[-1, -1, -1, -1, -1, 1984, 2345, 2599, -1, 2995, -1, 3394, -1, 3794, -1, 4190, -1, -1, -1]","[237, 362, 366, 358, 375, 360, 310, 171, 221, 173, 226, 173, 228, 172, 224, 171, 259, 399]","[367, 724, 1083, 1441, 1798, 2158, 2534, 2928, 3325, 3726, 4121, 4505, 4885]","[425, 787, 1152, 1512, 1867, 2228, 2604, 2998, 3397, 3797, 4192, 4576, 4954]","[539, 902, 1270, 1628, 1984, 2345, 2722, 3116, 3514, 3914, 4310, 4694, -1]","[362, 365, 360, 355, 361, 376, 394, 399, 400, 395, 384, 378]","[359, 718, 1083, 1439, 1790, 2154, 2531, 2924, 3323, 3723, 4120, 4499, 4879]","[418, 780, 1145, 1505, 1859, 2220, 2597, 2991, 3390, 3789, 4185, 4568, 4946]","[463, 839, 1218, 1595, 1917, 2315, 2689, 3059, 3476, 3854, 4229, 4620, -1]","[362, 365, 360, 354, 361, 377, 394, 399, 399, 396, 383, 378]","[324, 724, 1087, 1438, 1795, 2155, 2532, 2925, 3326, 3724, 4123, 4503, 4881]","[420, 782, 1147, 1507, 1861, 2222, 2599, 2993, 3391, 3792, 4187, 4570, 4949]","[526, 891, 1200, 1619, 1976, 2331, 2711, 3103, 3503, 3902, 4307, 4687, -1]","[362, 365, 360, 354, 361, 377, 394, 398, 401, 395, 383, 379]","[298, 728, 1068, 1437, 1800, 2167, 2539, 2927, 3257, 3724, 4121, 4501, 4884]","[423, 785, 1150, 1509, 1865, 2225, 2602, 2996, 3394, 3794, 4190, 4573, 4952]","[525, 899, 1262, 1544, 1976, 2341, 2718, 3104, 3512, 3911, 4306, 4687, -1]","[362, 365, 359, 356, 360, 377, 394, 398, 400, 396, 383, 379]","[367, 728, 1092, 1442, 1793, 2167, 2539, 2936, 3336, 3734, 4128, 4513, 4885]","[424, 786, 1151, 1511, 1867, 2227, 2604, 2997, 3396, 3796, 4191, 4574, 4954]","[537, 901, 1266, 1626, 1982, 2342, 2720, 3114, 3512, 3914, 4308, 4691, -1]","[362, 365, 360, 356, 360, 377, 393, 399, 400, 395, 383, 380]","[368, 730, 1094, 1454, 1799, 2148, 2545, 2937, 3339, 3737, 4131, 4516, 4895]","[425, 786, 1152, 1511, 1867, 2227, 2604, 2998, 3396, 3796, 4192, 4575, 4954]","[540, 902, 1268, 1628, 1984, 2344, 2721, 3116, 3514, 3914, 4311, 4694, -1]","[361, 366, 359, 356, 360, 377, 394, 398, 400, 396, 383, 379]","[370, 729, 1096, 1455, 1810, 2169, 2543, 2936, 3338, 3739, 4134, 4518, 4898]","[425, 787, 1152, 1512, 1867, 2228, 2604, 2998, 3397, 3797, 4192, 4575, 4954]","[541, 903, 1268, 1628, 1983, 2345, 2723, 3116, 3515, 3915, 4311, 4693, -1]","[362, 365, 360, 355, 361, 376, 394, 399, 400, 395, 383, 379]"
A00040,"[307, 771, 1237, 1695, 2155, 2647, 3110, 3583, 4073, 4544]","[375, 845, 1311, 1766, 2244, 2719, 3182, 3656, 4146, 4619]","[513, 978, 1444, 1800, 2377, 2853, 3315, 3789, 4279, 4755]","[470, 466, 455, 478, 475, 463, 474, 490, 473]","[295, 761, 1227, 1685, 2159, 2638, 3099, 3572, 4064, 4537]","[377, 846, 1313, 1768, 2246, 2721, 3184, 3658, 4147, 4621]","[460, 983, 1450, 1904, 2383, 2857, 3321, 3794, 4181, 4759]","[469, 467, 455, 478, 475, 463, 474, 489, 474]","[291, 761, 1227, 1683, 2160, 2637, 3098, 3572, 4061, 4536]","[380, 849, 1316, 1772, 2249, 2724, 3187, 3661, 4150, 4624]","[419, 906, 1377, 1830, 2306, 2771, 3240, 3727, 4189, 4687]","[469, 467, 456, 477, 475, 463, 474, 489, 474]","[254, 802, 1263, 1655, 2134, 2685, 3064, 3628, 4114, 4589]","[392, 861, 1328, 1783, 2260, 2735, 3199, 3673, 4162, 4636]","[429, 1042, 1494, 1823, 2431, -1, 3365, 3841, 4231, 4796]","[469, 467, 455, 477, 475, 464, 474, 489, 474]","[309, 715, 1193, 1699, 2177, 2625, 3064, 3537, 4078, 4501]","[373, 842, 1309, 1764, 2242, 2717, 3180, 3654, 4143, 4616]","[506, 973, 1440, 1889, 2372, 2847, 3307, 3784, 4274, 4750]","[469, 467, 455, 478, 475, 463, 474, 489, 473]","[293, 761, 1227, 1684, 2159, 2637, 3099, 3572, 4063, 4537]","[378, 847, 1314, 1769, 2247, 2722, 3185, 3659, 4148, 4622]","[420, 987, 1454, 1908, 2387, 2775, 3324, 3798, 4184, 4762]","[469, 467, 455, 478, 475, 463, 474, 489, 474]","[280, 748, 1216, 1670, 2149, 2624, 3086, 3560, 4051, 4525]","[368, 837, 1304, 1759, 2237, 2712, 3175, 3649, 4138, 4612]","[455, 967, 1413, 1877, 2360, 2836, 3295, 3778, 4265, 4744]","[469, 467, 455, 478, 475, 463, 474, 489, 474]","[282, 748, 1217, 1672, 2149, 2623, 3088, 3562, 4053, 4527]","[370, 840, 1306, 1762, 2239, 2714, 3177, 3651, 4141, 4614]","[502, 972, 1439, 1894, 2372, 2847, 3309, 3785, 4274, 4748]","[470, 466, 456, 477, 475, 463, 474, 490, 473]","[284, 751, 1220, 1675, 2152, 2628, 3090, 3564, 4056, 4529]","[374, 844, 1310, 1766, 2244, 2718, 3181, 3656, 4145, 4618]","[506, 975, 1442, 1896, 2375, 2850, 3313, 3788, 4278, 4752]","[470, 466, 456, 478, 474, 463, 475, 489, 473]","[286, 754, 1222, 1678, 2156, 2629, 3093, 3565, 4058, 4531]","[376, 845, 1312, 1767, 2245, 2720, 3183, 3657, 4146, 4620]","[508, 977, 1443, 1899, 2377, 2852, 3315, 3790, 4280, 4754]","[469, 467, 455, 478, 475, 463, 474, 489, 474]","[290, 756, 1226, 1680, 2159, 2631, 3096, 3563, 4066, 4534]","[376, 846, 1313, 1768, 2246, 2720, 3184, 3658, 4147, 4621]","[510, 979, 1445, 1901, 2379, 2854, 3317, 3791, 4282, 4755]","[470, 467, 455, 478, 474, 464, 474, 489, 474]","[290, 759, 1228, 1681, 2160, 2631, 3097, 3571, 4072, 4539]","[377, 847, 1313, 1769, 2247, 2721, 3184, 3659, 4148, 4621]","[509, 979, 1350, 1903, 2381, 2854, 3317, 3792, 4186, 4755]","[470, 466, 456, 478, 474, 463, 475, 489, 473]"
A00042,"[360, 820, 1303, 1733, 2201, 2643, 3063, 3492, 3935, 4432]","[451, 907, 1359, 1814, 2257, 2697, 3147, 3588, 4040, 4520]","[583, 1039, 1491, 1945, 2389, 2830, 3279, 3721, 4172, 4657]","[456, 452, 455, 443, 440, 450, 441, 452, 480]","[388, 845, 1297, 1753, 2197, 2637, 3087, 3527, 3980, 4460]","[451, 908, 1360, 1815, 2258, 2698, 3147, 3589, 4041, 4520]","[596, 1050, 1504, 1958, 2403, 2843, 3291, 3734, 4185, 4669]","[457, 452, 455, 443, 440, 449, 442, 452, 479]","[380, 838, 1292, 1744, 2192, 2632, 3082, 3523, 3978, 4453]","[454, 911, 1363, 1818, 2261, 2701, 3150, 3592, 4044, 4523]","[497, 955, 1417, 1868, 2310, 2767, 3204, 3654, 4108, 4573]","[457, 452, 455, 443, 440, 449, 442, 452, 479]","[351, 807, 1261, 1679, 2154, 2595, 3027, 3489, 3944, 4425]","[467, 924, 1376, 1831, 2274, 2714, 3163, 3605, 4057, 4536]","[-1, 1112, 1571, 2030, -1, -1, 3353, 3766, -1, 4690]","[457, 452, 455, 443, 440, 449, 442, 452, 479]","[357, 814, 1266, 1716, 2145, 2601, 3050, 3490, 3943, 4427]","[450, 906, 1358, 1814, 2257, 2696, 3146, 3587, 4040, 4519]","[580, 1035, 1486, 1942, 2385, 2826, 3277, 3719, 4168, 4653]","[456, 452, 456, 443, 439, 450, 441, 453, 479]","[383, 842, 1294, 1751, 2195, 2635, 3085, 3525, 3979, 4458, 4811]","[452, 909, 1361, 1815, 2259, 2698, 3148, 3590, 4042, 4521, 4937]","[552, 999, 1514, 1915, 2346, 2855, 3252, 3744, 4137, 4677, -1]","[457, 452, 454, 444, 439, 450, 442, 452, 479, 416]","[376, 834, 1286, 1737, 2183, 2624, 2991, 3463, 3970, 4447]","[440, 896, 1348, 1803, 2246, 2686, 3134, 3546, 4029, 4508]","[532, 969, 1412, 1881, 2306, 2756, 3233, 3631, 4095, 4573]","[456, 452, 455, 443, 440, 448, 412, 483, 479]","[376, 835, 1284, 1740, 2183, 2622, 3072, 3512, 3966, 4446]","[442, 898, 1350, 1805, 2249, 2688, 3138, 3580, 4032, 4511]","[582, 962, 1491, 1945, 2386, 2828, 3277, 3721, 4170, 4652]","[456, 452, 455, 444, 439, 450, 442, 452, 479]","[387, 841, 1293, 1754, 2196, 2626, 3080, 3525, 3972, 4454]","[447, 903, 1355, 1810, 2253, 2693, 3142, 3584, 4036, 4516]","[594, 1043, 1501, 1953, 2398, 2833, 3286, 3730, 4089, -1]","[456, 452, 455, 443, 440, 449, 442, 452, 480]","[391, 846, 1297, 1755, 2198, 2637, 3087, 3527, 3981, 4460]","[450, 906, 1358, 1813, 2257, 2696, 3146, 3587, 4040, 4519]","[592, 1044, 1500, 1953, 2397, 2836, 3197, 3729, 4179, 4669]","[456, 452, 455, 444, 439, 450, 441, 453, 479]","[388, 848, 1298, 1756, 2197, 2637, 3088, 3529, 3982, 4460]","[451, 907, 1359, 1814, 2257, 2697, 3146, 3588, 4040, 4520]","[588, 1043, 1497, 1953, 2394, 2835, 3287, 3726, 4179, 4665]","[456, 452, 455, 443, 440, 449, 442, 452, 480]","[391, 849, 1296, 1755, 2176, 2617, 3089, 3529, 3983, 4463]","[451, 907, 1360, 1814, 2258, 2697, 3147, 3588, 4041, 4520]","[589, 950, 1498, 1953, 2397, 2834, 3287, 3725, 4177, 4663]","[456, 453, 454, 444, 439, 450, 441, 453, 479]"
A00043,"[309, 694, 1094, 1506, 1925, 2320, 2738, 3177, 3623, 4062, 4463, 4873]","[367, 753, 1152, 1564, 1982, 2378, 2793, 3231, 3679, 4118, 4519, 4933]","[415, 890, 1288, 1697, 2118, 2515, 2930, 3368, 3816, 4255, 4657, -1]","[386, 399, 412, 418, 396, 415, 438, 448, 439, 401, 414]","[306, 690, 1088, 1500, 1922, 2313, 2727, 3170, 3617, 4053, 4458, 4871]","[370, 755, 1154, 1565, 1985, 2381, 2795, 3234, 3681, 4121, 4523, 4935]","[406, 891, 1288, 1702, 2031, 2517, 2933, 3371, 3819, 4260, 4659, 4968]","[385, 399, 411, 420, 396, 414, 439, 447, 440, 402, 412]","[294, 682, 1080, 1492, 1911, 2308, 2724, 3156, 3609, 4049, 4452, 4861]","[373, 758, 1157, 1568, 1990, 2384, 2798, 3236, 3684, 4125, 4527, 4938]","[435, 820, 1215, 1635, 2053, 2424, 2836, 3282, 3741, 4176, 4584, -1]","[385, 399, 411, 422, 394, 414, 438, 448, 441, 402, 411]","[337, 720, 1060, 1472, 1888, 2288, 2695, 3138, 3583, 4018, 4490, 4832]","[382, 768, 1167, 1578, 1998, 2393, 2808, 3246, 3694, 4133, 4535, 4948]","[458, -1, -1, -1, 2059, -1, 2845, 3413, 3859, -1, 4724, -1]","[386, 399, 411, 420, 395, 415, 438, 448, 439, 402, 413]","[272, 672, 1060, 1467, 1882, 2296, 2714, 3142, 3588, 4021, 4418, 4845]","[364, 750, 1149, 1561, 1980, 2374, 2790, 3228, 3676, 4115, 4516, 4930]","[419, 883, 1288, 1612, 2042, 2508, 2872, 3296, 3813, 4164, 4555, 4984]","[386, 399, 412, 419, 394, 416, 438, 448, 439, 401, 414]","[304, 685, 1082, 1498, 1918, 2310, 2725, 3158, 3614, 4050, 4455, 4868]","[371, 757, 1155, 1566, 1987, 2382, 2796, 3235, 3682, 4123, 4524, 4936]","[508, 794, 1217, 1600, 2126, 2427, 2837, 3283, 3821, 4176, 4585, 4969]","[386, 398, 411, 421, 395, 414, 439, 447, 441, 401, 412]","[290, 675, 1075, 1487, 1906, 2302, 2717, 3155, 3603, 4043, 4445, 4856]","[359, 746, 1144, 1556, 1975, 2371, 2786, 3224, 3671, 4111, 4512, 4925]","[415, 830, 1219, 1641, 2042, 2443, 2866, 3317, 3751, 4171, 4595, 4982]","[387, 398, 412, 419, 396, 415, 438, 447, 440, 401, 413]","[289, 678, 1076, 1488, 1909, 2302, 2719, 3159, 3605, 4046, 4445, 4859]","[361, 746, 1145, 1556, 1977, 2372, 2786, 3224, 3672, 4112, 4514, 4926]","[483, 876, 1271, 1685, 2097, 2500, 2912, 3350, 3800, 4235, 4635, 4981]","[385, 399, 411, 421, 395, 414, 438, 448, 440, 402, 412]","[290, 690, 1088, 1492, 1914, 2305, 2722, 3161, 3608, 4051, 4456, 4863]","[364, 749, 1148, 1560, 1979, 2375, 2789, 3228, 3675, 4115, 4516, 4929]","[491, 881, 1278, 1692, 2111, 2505, 2921, 3360, 3807, 4244, 4648, -1]","[385, 399, 412, 419, 396, 414, 439, 447, 440, 401, 413]","[292, 692, 1088, 1493, 1921, 2317, 2732, 3166, 3615, 4057, 4460, 4871]","[366, 752, 1151, 1562, 1982, 2377, 2792, 3230, 3678, 4118, 4519, 4932]","[500, 887, 1287, 1698, 2118, 2514, 2929, 3366, 3816, 4256, 4658, -1]","[386, 399, 411, 420, 395, 415, 438, 448, 440, 401, 413]","[304, 692, 1089, 1502, 1923, 2318, 2733, 3169, 3617, 4058, 4460, 4873]","[367, 753, 1152, 1563, 1983, 2379, 2793, 3231, 3679, 4119, 4520, 4933]","[502, 889, 1288, 1700, 2119, 2515, 2931, 3368, 3817, 4256, 4658, -1]","[386, 399, 411, 420, 396, 414, 438, 448, 440, 401, 413]","[307, 695, 1090, 1503, 1923, 2319, 2734, 3169, 3619, 4059, 4461, 4872]","[368, 754, 1153, 1564, 1984, 2380, 2794, 3233, 3680, 4120, 4521, 4934]","[503, 889, 1289, 1701, 2119, 2516, 2931, 3370, 3817, 4256, 4659, -1]","[386, 399, 411, 420, 396, 414, 439, 447, 440, 401, 413]"
A00044,"[439, 878, 1282, 1696, 2106, 2514, 2921, 3337, 3751, 4158, 4561, 4876]","[526, 931, 1339, 1749, 2161, 2565, 2976, 3391, 3805, 4212, 4614, 4961]","[647, 1053, 1461, 1881, 2283, 2692, 3099, 3514, 3927, 4337, 4739, -1]","[405, 408, 410, 412, 404, 411, 415, 414, 407, 402, 347]","[452, 851, 1263, 1683, 2088, 2492, 2909, 3318, 3732, 4149, 4539]","[528, 933, 1340, 1751, 2163, 2567, 2977, 3392, 3806, 4214, 4615]","[649, 1053, 1462, 1874, 2283, 2693, 3100, 3515, 3927, 4338, 4738]","[405, 407, 411, 412, 404, 410, 415, 414, 408, 401]","[448, 850, 1261, 1671, 2084, 2488, 2898, 3312, 3729, 4135, 4536, 4853]","[536, 942, 1351, 1762, 2173, 2575, 2986, 3403, 3818, 4223, 4623, 4938]","[653, 1067, 1472, 1802, 2224, 2618, 3031, 3448, 3851, 4272, 4679, -1]","[406, 409, 411, 411, 402, 411, 417, 415, 405, 400, 315]","[424, 832, 1268, 1663, 2064, 2461, 2878, 3293, 3708, 4104, 4548]","[505, 951, 1359, 1769, 2180, 2585, 2995, 3411, 3780, 4231, 4634]","[550, 1117, 1516, 1941, 2340, 2741, 3160, 3567, 3843, 4392, 4790]","[446, 408, 410, 411, 405, 410, 416, 369, 451, 403]","[434, 878, 1284, 1696, 2107, 2469, 2922, 3338, 3720, 4160, 4563, 4876]","[525, 930, 1338, 1748, 2160, 2564, 2974, 3390, 3804, 4211, 4612, 4962]","[645, 1052, 1460, 1887, 2195, 2690, 3098, 3512, 3927, 4335, 4739, -1]","[405, 408, 410, 412, 404, 410, 416, 414, 407, 401, 350]","[450, 851, 1262, 1678, 2086, 2489, 2906, 3315, 3730, 4143, 4538]","[530, 934, 1342, 1753, 2165, 2569, 2979, 3394, 3808, 4216, 4617]","[650, 1053, 1464, 1869, 2282, 2693, 3101, 3516, 3858, 4338, 4738]","[404, 408, 411, 412, 404, 410, 415, 414, 408, 401]","[451, 851, 1260, 1670, 2083, 2486, 2895, 3313, 3724, 4135, 4541, 4876]","[520, 924, 1331, 1742, 2155, 2559, 2969, 3383, 3797, 4206, 4607, 4936]","[570, 978, 1431, 1796, 2241, 2611, 3068, 3483, 3898, 4258, 4662, 4987]","[404, 407, 411, 413, 404, 410, 414, 414, 409, 401, 329]","[446, 853, 1261, 1675, 2084, 2488, 2901, 3314, 3726, 4134, 4535]","[521, 925, 1332, 1743, 2156, 2560, 2970, 3385, 3798, 4207, 4608]","[637, 1044, 1450, 1862, 2274, 2677, 3090, 3505, 3917, 4324, 4730]","[404, 407, 411, 413, 404, 410, 415, 413, 409, 401]","[454, 853, 1269, 1676, 2087, 2488, 2903, 3318, 3729, 4139, 4541]","[524, 928, 1335, 1746, 2158, 2563, 2973, 3388, 3801, 4209, 4611]","[643, 1048, 1455, 1865, 2278, 2681, 3093, 3508, 3922, 4328, 4731]","[404, 407, 411, 412, 405, 410, 415, 413, 408, 402]","[454, 855, 1264, 1679, 2088, 2490, 2902, 3318, 3733, 4139, 4538]","[526, 931, 1338, 1748, 2160, 2565, 2975, 3390, 3804, 4212, 4613]","[645, 1050, 1457, 1867, 2280, 2685, 3096, 3510, 3924, 4332, 4734]","[405, 407, 410, 412, 405, 410, 415, 414, 408, 401]","[454, 864, 1263, 1678, 2089, 2487, 2906, 3322, 3738, 4142, 4537]","[527, 931, 1339, 1749, 2161, 2566, 2976, 3391, 3805, 4212, 4614]","[647, 1051, 1459, 1868, 2282, 2687, 3097, 3514, 3924, 4332, 4736]","[404, 408, 410, 412, 405, 410, 415, 414, 407, 402]","[474, 853, 1285, 1694, 2108, 2490, 2923, 3336, 3726, 4159, 4542]","[527, 932, 1340, 1750, 2162, 2567, 2977, 3392, 3806, 4213, 4615]","[648, 1054, 1461, 1870, 2284, 2689, 3099, 3514, 3929, 4335, 4739]","[405, 408, 410, 412, 405, 410, 415, 414, 407, 402]"
A00045,"[277, 682, 1102, 1534, 1964, 2392, 2830, 3275, 3719, 4146, 4578]","[358, 763, 1185, 1616, 2045, 2472, 2910, 3356, 3800, 4228, 4660]","[479, 883, 1305, 1737, 2166, 2594, 3031, 3480, 3924, 4352, 4785]","[405, 422, 431, 429, 427, 438, 446, 444, 428, 432]","[270, 673, 1094, 1524, 1952, 2380, 2817, 3266, 3713, 4136, 4572]","[359, 764, 1186, 1617, 2047, 2475, 2912, 3357, 3802, 4230, 4661]","[407, 899, 1320, 1741, 2180, 2522, 3044, 3490, 3869, 4283, 4800]","[405, 422, 431, 430, 428, 437, 445, 445, 428, 431]","[263, 667, 1088, 1519, 1946, 2376, 2814, 3260, 3706, 4131, 4566]","[365, 770, 1191, 1623, 2054, 2480, 2916, 3363, 3808, 4236, 4667]","[406, 838, 1242, 1672, 2215, 2518, 2994, 3412, 3866, 4282, 4740]","[405, 421, 432, 431, 426, 436, 447, 445, 428, 431]","[321, 650, 1145, 1579, 2003, 2347, 2865, 3309, 3761, 4113, 4621]","[375, 779, 1201, 1631, 2062, 2489, 2926, 3372, 3817, 4245, 4676]","[435, 812, 1387, 1823, 2104, 2673, 3113, 3549, 4004, 4435, 4869]","[404, 422, 430, 431, 427, 437, 446, 445, 428, 431]","[281, 685, 1106, 1536, 1966, 2395, 2832, 3278, 3722, 4148, 4582]","[357, 761, 1184, 1615, 2044, 2471, 2909, 3355, 3799, 4227, 4658]","[472, 879, 1228, 1658, 2160, 2591, 3020, 3473, 3916, 4346, 4780]","[404, 423, 431, 429, 427, 438, 446, 444, 428, 431]","[268, 670, 1091, 1521, 1949, 2378, 2815, 3263, 3711, 4134, 4570]","[361, 766, 1187, 1618, 2049, 2476, 2913, 3358, 3803, 4232, 4663]","[407, 843, 1242, 1744, 2183, 2520, 2998, 3494, 3867, 4283, 4742]","[405, 421, 431, 431, 427, 437, 445, 445, 429, 431]","[263, 669, 1092, 1521, 1952, 2382, 2817, 3260, 3707, 4135, 4565]","[350, 754, 1176, 1607, 2037, 2465, 2901, 3347, 3792, 4220, 4651]","[422, 876, 1300, 1725, 2118, 2583, 3023, 3470, 3910, 4339, 4773]","[404, 422, 431, 430, 428, 436, 446, 445, 428, 431]","[268, 673, 1092, 1524, 1945, 2381, 2818, 3265, 3706, 4134, 4565]","[350, 755, 1177, 1608, 2038, 2465, 2902, 3348, 3793, 4221, 4652]","[477, 879, 1304, 1734, 2164, 2592, 3029, 3476, 3919, 4350, 4780]","[405, 422, 431, 430, 427, 437, 446, 445, 428, 431]","[266, 672, 1092, 1525, 1953, 2384, 2821, 3264, 3709, 4138, 4568]","[357, 761, 1183, 1614, 2044, 2471, 2909, 3355, 3799, 4227, 4659]","[476, 881, 1304, 1734, 2162, 2592, 3029, 3478, 3919, 4348, 4782]","[404, 422, 431, 430, 427, 438, 446, 444, 428, 432]","[265, 673, 1097, 1524, 1953, 2386, 2824, 3266, 3713, 4139, 4569]","[358, 763, 1184, 1616, 2045, 2473, 2910, 3356, 3800, 4228, 4660]","[478, 884, 1228, 1738, 2169, 2596, 3035, 3393, 3850, 4352, 4785]","[405, 421, 432, 429, 428, 437, 446, 444, 428, 432]","[268, 677, 1095, 1528, 1955, 2383, 2825, 3266, 3710, 4139, 4568]","[359, 763, 1185, 1616, 2046, 2473, 2911, 3357, 3801, 4229, 4660]","[481, 887, 1310, 1655, 2099, 2596, 3037, 3404, 3850, 4354, 4789]","[404, 422, 431, 430, 427, 438, 446, 444, 428, 431]","[267, 676, 1098, 1529, 1956, 2384, 2825, 3266, 3716, 4140, 4574]","[359, 764, 1186, 1617, 2047, 2474, 2911, 3357, 3801, 4230, 4661]","[485, 890, 1226, 1654, 2173, 2600, 3042, 3488, 3932, 4359, 4791]","[405, 422, 431, 430, 427, 437, 446, 444, 429, 431]"
A00046,"[268, 610, 946, 1281, 1619, 1956, 2290, 2625, 2969, 3316, 3660, 4013, 4375, 4747]","[333, 674, 1010, 1344, 1682, 2019, 2353, 2689, 3033, 3379, 3722, 4075, 4437, 4811]","[449, 789, 1125, 1460, 1798, 2135, 2469, 2805, 3150, 3496, 3837, 4192, 4555, 4930]","[341, 336, 334, 338, 337, 334, 336, 344, 346, 343, 353, 362, 374]","[257, 597, 934, 1268, 1605, 1943, 2278, 2612, 2955, 3303, 3648, 3999, 4361, 4734]","[334, 675, 1012, 1346, 1683, 2020, 2355, 2690, 3034, 3380, 3724, 4076, 4439, 4812]","[450, 787, 1129, 1462, 1801, 2137, 2472, 2808, 3152, 3498, 3841, 4195, 4557, 4931]","[341, 337, 334, 337, 337, 335, 335, 344, 346, 344, 352, 363, 373]","[254, 595, 932, 1266, 1602, 1940, 2275, 2610, 2952, 3300, 3645, 3996, 4358, 4731]","[344, 685, 1021, 1355, 1693, 2030, 2364, 2700, 3044, 3390, 3733, 4086, 4449, 4823]","[382, 717, 1155, 1402, 1746, 2078, 2428, 2759, 3103, 3451, 3867, 4157, 4499, 4876]","[341, 336, 334, 338, 337, 334, 336, 344, 346, 343, 353, 363, 374]","[224, 569, 902, 1241, 1574, 1907, 2239, 2645, 2923, 3273, 3615, -1, 4324, 4704]","[347, 689, 1025, 1359, 1697, 2034, 2368, 2704, 3047, 3394, 3737, 4090, 4452, 4826]","[-1, -1, 1170, -1, -1, -1, -1, -1, -1, -1, -1, -1, -1, -1]","[342, 336, 334, 338, 337, 334, 336, 343, 347, 343, 353, 362, 374]","[271, 614, 950, 1284, 1622, 1958, 2296, 2630, 2971, 3319, 3677, 4017, 4380, 4752]","[333, 674, 1010, 1344, 1682, 2019, 2353, 2689, 3032, 3379, 3721, 4074, 4437, 4811]","[449, 790, 1124, 1458, 1797, 2133, 2468, 2804, 3148, 3494, 3821, 4191, 4554, 4929]","[341, 336, 334, 338, 337, 334, 336, 343, 347, 342, 353, 363, 374]","[255, 528, 877, 1267, 1603, 1941, 2277, 2535, 2953, 3302, 3646, 3937, 4281, 4668]","[341, 596, 934, 1351, 1690, 2026, 2360, 2611, 3040, 3386, 3729, 3997, 4359, 4733]","[400, 680, 1014, 1468, 1804, 2140, 2436, 2694, 3155, 3502, 3786, 4081, 4444, 4818]","[255, 338, 417, 339, 336, 334, 251, 429, 346, 343, 268, 362, 374]","[246, 587, 920, 1253, 1591, 1933, 2263, 2601, 2942, 3292, 3634, 3987, 4351, 4725]","[325, 667, 1001, 1337, 1674, 2010, 2347, 2682, 3025, 3371, 3716, 4067, 4429, 4803]","[362, 729, 1042, 1385, 1711, 2051, 2385, 2731, 3065, 3413, 3763, 4114, 4472, 4846]","[342, 334, 336, 337, 336, 337, 335, 343, 346, 345, 351, 362, 374]","[244, 613, 948, 1283, 1594, 1932, 2265, 2599, 2946, 3292, 3661, 3987, 4351, 4725]","[332, 673, 1009, 1343, 1681, 2018, 2353, 2688, 3032, 3378, 3722, 4074, 4436, 4810]","[365, 705, 1042, 1380, 1815, 2150, 2386, 2821, 3163, 3410, 3759, 4206, 4567, 4941]","[341, 336, 334, 338, 337, 335, 335, 344, 346, 344, 352, 362, 374]","[265, 591, 926, 1276, 1600, 1937, 2267, 2605, 2966, 3314, 3641, 3990, 4354, 4729]","[332, 674, 1010, 1344, 1682, 2018, 2353, 2689, 3032, 3379, 3722, 4074, 4437, 4811]","[460, 799, 1135, 1471, 1808, 2143, 2477, 2813, 3159, 3504, 3846, 4200, 4563, 4938]","[342, 336, 334, 338, 336, 335, 336, 343, 347, 343, 352, 363, 374]","[267, 610, 936, 1276, 1613, 1937, 2288, 2626, 2968, 3316, 3659, 4010, 4373, 4746]","[332, 673, 1010, 1344, 1681, 2018, 2353, 2688, 3032, 3379, 3722, 4074, 4437, 4811]","[456, 794, 1128, 1464, 1806, 2139, 2463, 2809, 3154, 3498, 3842, 4195, 4560, 4932]","[341, 337, 334, 337, 337, 335, 335, 344, 347, 343, 352, 363, 374]","[268, 604, 941, 1275, 1608, 1954, 2289, 2625, 2967, 3315, 3658, 4011, 4373, 4731]","[332, 673, 1010, 1344, 1682, 2018, 2353, 2689, 3032, 3379, 3722, 4074, 4437, 4811]","[447, 792, 1127, 1462, 1800, 2136, 2471, 2807, 3151, 3497, 3841, 4196, 4554, 4930]","[341, 337, 334, 338, 336, 335, 336, 343, 347, 343, 352, 363, 374]","[252, 612, 946, 1277, 1607, 1953, 2286, 2624, 2968, 3316, 3658, 4011, 4372, 4742]","[333, 674, 1011, 1345, 1683, 2019, 2354, 2689, 3033, 3379, 3723, 4075, 4438, 4811]","[375, 792, 1128, 1387, 1729, 2136, 2470, 2806, 3157, 3498, 3840, 4193, 4556, 4931]","[341, 337, 334, 338, 336, 335, 335, 344, 346, 344, 352, 363, 373]"
A00047,"[-1, 450, 810, 1170, 1563, 1966, 2369, 2757, 3132, 3521, 3923, 4332, 4751]","[152, 513, 870, 1239, 1626, 2029, 2432, 2818, 3192, 3581, 3986, 4396, 4815]","[271, 632, 989, 1361, 1748, 2151, 2554, 2942, 3316, 3703, 4108, 4523, 4942]","[361, 357, 369, 387, 403, 403, 386, 374, 389, 405, 410, 419]","[-1, 447, 807, 1176, 1561, 1965, 2367, 2756, 3130, 3517, 3921, 4332, 4751]","[153, 513, 871, 1240, 1626, 2029, 2433, 2819, 3193, 3582, 3986, 4396, 4816]","[186, 636, 996, 1362, 1748, 2152, 2557, 2945, 3235, 3705, 4109, 4522, 4940]","[360, 358, 369, 386, 403, 404, 386, 374, 389, 404, 410, 420]","[71, 434, 805, 1182, 1545, 1947, 2356, 2748, 3114, 3501, 3905, 4315, 4737]","[158, 517, 873, 1241, 1629, 2034, 2439, 2822, 3195, 3584, 3989, 4400, 4822]","[215, 578, 939, 1321, 1684, 2096, 2501, 2897, 3234, 3670, 4029, 4442, 4874]","[359, 356, 368, 388, 405, 405, 383, 373, 389, 405, 411, 422]","[31, 477, 838, 1194, 1525, 1925, 2323, 2781, 3093, 3544, 3949, 4293, 4715]","[170, 530, 888, 1257, 1643, 2046, 2450, 2836, 3210, 3599, 4003, 4414, 4834]","[-1, -1, -1, -1, -1, -1, -1, -1, 3248, -1, 4037, -1, -1]","[360, 358, 369, 386, 403, 404, 386, 374, 389, 404, 411, 420]","[-1, 453, 774, -1, 1565, 1968, 2371, 2760, 3097, 3524, 3926, 4337, 4752]","[151, 511, 869, 1239, 1625, 2028, 2431, 2817, 3191, 3580, 3985, 4395, 4815]","[271, 630, 986, 1360, 1748, 2151, 2552, 2939, 3313, 3701, 4107, 4523, 4943]","[360, 358, 370, 386, 403, 403, 386, 374, 389, 405, 410, 420]","[-1, 446, 807, 1179, 1560, 1964, 2365, 2754, 3129, 3515, 3920, 4331, 4738]","[153, 514, 872, 1240, 1627, 2030, 2434, 2819, 3194, 3582, 3987, 4397, 4817]","[186, 580, 914, 1363, 1748, 2134, 2559, 2948, 3234, 3615, 4029, 4443, 4849]","[361, 358, 368, 387, 403, 404, 385, 375, 388, 405, 410, 420]","[432, 789, 1159, 1544, 1947, 2353, 2738, 3112, 3503, 3905, 4313, 4733]","[503, 860, 1229, 1615, 2018, 2422, 2808, 3182, 3571, 3975, 4385, 4805]","[552, 908, 1276, 1704, 2061, 2465, 2882, 3227, 3644, 4064, 4475, 4866]","[357, 369, 386, 403, 404, 386, 374, 389, 404, 410, 420]","[432, 788, 1165, 1546, 1951, 2348, 2739, 3115, 3502, 3909, 4318, 4737]","[509, 867, 1235, 1622, 2025, 2429, 2815, 3189, 3577, 3982, 4392, 4812]","[624, 983, 1352, 1738, 2064, 2548, 2930, 3307, 3697, 4098, 4506, 4856]","[358, 368, 387, 403, 404, 386, 374, 388, 405, 410, 420]","[-1, 432, 790, 1176, 1547, 1949, 2354, 2754, 3129, 3519, 3912, 4319, 4742]","[152, 512, 870, 1239, 1625, 2028, 2432, 2818, 3192, 3581, 3986, 4395, 4815]","[271, 631, 990, 1360, 1738, 2148, 2554, 2938, 3314, 3704, 4106, 4518, 4941]","[360, 358, 369, 386, 403, 404, 386, 374, 389, 405, 409, 420]","[-1, 448, 791, 1176, 1561, 1962, 2351, 2755, 3127, 3519, 3922, 4328, 4739]","[152, 513, 871, 1239, 1626, 2029, 2433, 2819, 3193, 3581, 3986, 4396, 4815]","[275, 632, 991, 1362, 1746, 2150, 2545, 2941, 3315, 3703, 4109, 4518, 4941]","[361, 358, 368, 387, 403, 404, 386, 374, 388, 405, 410, 419]","[-1, 451, 814, 1179, 1555, 1967, 2348, 2755, 3131, 3521, 3920, 4335, 4751]","[152, 513, 871, 1240, 1626, 2029, 2433, 2819, 3193, 3582, 3986, 4396, 4816]","[269, 631, 981, 1356, 1748, 2150, 2556, 2940, 3313, 3707, 4019, 4528, 4941]","[361, 358, 369, 386, 403, 404, 386, 374, 389, 404, 410, 420]","[-1, 449, 790, 1178, 1562, 1967, 2370, 2755, 3132, 3520, 3923, 4331, 4750]","[153, 514, 871, 1240, 1626, 2029, 2433, 2819, 3193, 3582, 3987, 4396, 4816]","[274, 632, 992, 1366, 1745, 2153, 2555, 2941, 3316, 3704, 4113, 4527, 4943]","[361, 357, 369, 386, 403, 404, 386, 374, 389, 405, 409, 420]"
A00048,"[143, 553, 958, 1358, 1754, 2154, 2555, 2953, 3352, 3752, 4156, 4565, 4975, 5382, 5785]","[200, 610, 1016, 1416, 1812, 2211, 2612, 3011, 3409, 3808, 4212, 4623, 5033, 5440, 5841]","[319, 728, 1132, 1530, 1929, 2328, 2729, 3128, 3523, 3923, 4329, 4742, 5151, 5553, 5966]","[410, 406, 400, 396, 399, 401, 399, 398, 399, 404, 411, 410, 407, 401]","[135, 543, 950, 1348, 1743, 2144, 2548, 2947, 3346, 3741, 4145, 4554, 4962, 5375, 5780]","[204, 614, 1021, 1420, 1816, 2215, 2616, 3015, 3414, 3813, 4216, 4627, 5037, 5444, 5845]","[328, 739, 1145, 1550, 1941, 2339, 2745, 3141, 3542, 3937, 4340, 4751, 5165, 5570, 5972]","[410, 407, 399, 396, 399, 401, 399, 399, 399, 403, 411, 410, 407, 401]","[130, 539, 943, 1345, 1740, 2140, 2541, 2941, 3339, 3738, 4142, 4551, 4960, 5368, 5772]","[207, 618, 1026, 1425, 1819, 2219, 2620, 3020, 3419, 3817, 4219, 4631, 5042, 5449, 5849]","[333, 671, 1166, 1566, 1871, 2267, 2685, -1, 3556, 3948, 4358, 4766, 5210, 5582, 5978]","[411, 408, 399, 394, 400, 401, 400, 399, 398, 402, 412, 411, 407, 400]","[109, 512, 916, 1321, 2113, 2515, 2919, 3313, 4118, 4528, 4939, 5330, 5749]","[180, 584, 997, 1385, 2184, 2591, 2990, 3390, 4192, 4596, 5012, 5419, 5822]","[246, 651, 1070, 1471, 2251, 2653, 3056, 3450, 4253, 4664, 5070, 5483, 5882]","[404, 413, 388, 799, 407, 399, 400, 802, 404, 416, 407, 403]","[112, 559, 963, 1327, 1717, 2124, 2523, 2924, 3355, 3722, 4161, 4536, 4942, 5384, 5736]","[196, 606, 1013, 1412, 1807, 2207, 2608, 3008, 3406, 3804, 4208, 4619, 5030, 5437, 5837]","[300, 713, 1122, 1520, 1856, 2256, 2717, 3121, 3515, 3905, 4258, 4725, 5138, 5542, 5948]","[410, 407, 399, 395, 400, 401, 400, 398, 398, 404, 411, 411, 407, 400]","[132, 540, 945, 1346, 1741, 2141, 2543, 2943, 3342, 3739, 4143, 4552, 4961, 5371, 5776]","[205, 615, 1023, 1422, 1818, 2217, 2617, 3017, 3416, 3814, 4217, 4628, 5039, 5446, 5847]","[262, 745, 1083, 1554, 1943, 2267, 2750, 3144, 3547, 3940, 4346, 4754, 5168, 5573, 5974]","[410, 408, 399, 396, 399, 400, 400, 399, 398, 403, 411, 411, 407, 401]","[128, 537, 943, 1345, 1740, 2139, 2539, 2912, 3337, 3736, 4140, 4513, 4961, 5367, 5769]","[188, 598, 1004, 1404, 1800, 2199, 2600, 2999, 3397, 3796, 4200, 4610, 5021, 5428, 5829]","[320, 655, 1074, 1483, 1868, 2280, 2697, 3088, 3469, 3863, 4265, 4682, 5076, 5499, 5895]","[410, 406, 400, 396, 399, 401, 399, 398, 399, 404, 410, 411, 407, 401]","[134, 542, 944, 1349, 1743, 2142, 2542, 2941, 3341, 3740, 4144, 4554, 4966, 5374, 5771]","[194, 604, 1011, 1411, 1806, 2205, 2606, 3006, 3404, 3803, 4206, 4617, 5027, 5434, 5835]","[312, 718, 1125, 1526, 1922, 2322, 2723, 3123, 3520, 3919, 4324, 4733, 5145, 5552, 5954]","[410, 407, 400, 395, 399, 401, 400, 398, 399, 403, 411, 410, 407, 401]","[136, 542, 951, 1351, 1745, 2144, 2542, 2943, 3343, 3743, 4145, 4557, 4966, 5375, 5772]","[197, 606, 1013, 1413, 1808, 2208, 2608, 3008, 3406, 3805, 4208, 4619, 5030, 5436, 5838]","[311, 719, 1125, 1526, 1923, 2323, 2723, 3124, 3520, 3919, 4324, 4734, 5145, 5553, 5955]","[409, 407, 400, 395, 400, 400, 400, 398, 399, 403, 411, 411, 406, 402]","[136, 546, 954, 1355, 1749, 2147, 2546, 2944, 3348, 3743, 4147, 4558, 4968, 5377, 5778]","[199, 608, 1014, 1414, 1810, 2210, 2610, 3009, 3408, 3807, 4210, 4621, 5031, 5438, 5839]","[312, 721, 1128, 1527, 1923, 2325, 2726, 3125, 3522, 3921, 4325, 4735, 5148, 5554, 5958]","[409, 406, 400, 396, 400, 400, 399, 399, 399, 403, 411, 410, 407, 401]","[137, 550, 957, 1355, 1750, 2150, 2548, 2948, 3348, 3749, 4152, 4562, 4969, 5378, 5779]","[200, 609, 1016, 1416, 1812, 2211, 2611, 3011, 3409, 3808, 4212, 4623, 5033, 5439, 5841]","[323, 737, 1140, 1532, 1931, 2331, 2735, 3133, 3531, 3926, 4334, 4747, 5153, 5563, 5973]","[409, 407, 400, 396, 399, 400, 400, 398, 399, 404, 411, 410, 406, 402]","[137, 551, 957, 1357, 1752, 2152, 2549, 2950, 3349, 3750, 4156, 4564, 4972, 5379, 5780]","[202, 611, 1017, 1417, 1813, 2212, 2613, 3012, 3410, 3809, 4213, 4624, 5034, 5441, 5842]","[327, 739, 1145, 1537, 1935, 2338, 2738, 3064, 3535, 3931, 4338, 4751, 5161, 5567, 5973]","[409, 406, 400, 396, 399, 401, 399, 398, 399, 404, 411, 410, 407, 401]"
A00052,"[296, 774, 1192, 1598, 2012, 2437, 2890, 3356, 3822, 4259, 4671]","[360, 836, 1252, 1657, 2074, 2499, 2953, 3419, 3885, 4319, 4730]","[474, 949, 1364, 1770, 2188, 2613, 3069, 3534, 3999, 4433, 4845]","[476, 416, 405, 417, 425, 454, 466, 466, 434, 411]","[289, 767, 1183, 1584, 1994, 2429, 2884, 3350, 3816, 4248, 4659]","[361, 838, 1254, 1658, 2075, 2500, 2955, 3421, 3886, 4321, 4732]","[479, 955, 1371, 1777, 2193, 2616, 3073, 3539, 4005, 4439, 4851]","[477, 416, 404, 417, 425, 455, 466, 465, 435, 411]","[278, 756, 1175, 1579, 1992, 2420, 2873, 3338, 3804, 4239, 4654]","[372, 848, 1263, 1668, 2086, 2511, 2966, 3432, 3897, 4331, 4742]","[-1, 886, 1392, 1799, 2218, 2651, 3114, 3582, 4048, -1, 4934]","[476, 415, 405, 418, 425, 455, 466, 465, 434, 411]","[-1, 739, 1218, 1623, 1942, 2394, 2921, 3271, 3785, 4286, 4631]","[376, 853, 1269, 1673, 2091, 2516, 2970, 3436, 3901, 4336, 4747]","[-1, -1, -1, -1, -1, -1, -1, -1, -1, -1, 4900]","[477, 416, 404, 418, 425, 454, 466, 465, 435, 411]","[302, 780, 1161, 1603, 2019, 2443, 2898, 3363, 3829, 4229, 4677]","[359, 835, 1251, 1656, 2073, 2498, 2953, 3418, 3884, 4318, 4730]","[472, 947, 1361, 1767, 2185, 2611, 3067, 3533, 3998, 4431, 4842]","[476, 416, 405, 417, 425, 455, 465, 466, 434, 412]","[283, 761, 1178, 1582, 1993, 2423, 2877, 3343, 3809, 4242, 4656]","[366, 843, 1257, 1660, 2078, 2503, 2959, 3425, 3891, 4325, 4734]","[486, 964, 1378, 1782, 2199, 2622, 3080, 3546, 4014, 4448, 4858]","[477, 414, 403, 418, 425, 456, 466, 466, 434, 409]","[284, 759, 1176, 1579, 1999, 2422, 2880, 3344, 3811, 4243, 4654]","[350, 827, 1244, 1648, 2065, 2490, 2944, 3410, 3875, 4311, 4722]","[470, 946, 1361, 1764, 2182, 2608, 3062, 3528, 3992, 4428, 4839]","[477, 417, 404, 417, 425, 454, 466, 465, 436, 411]","[287, 764, 1178, 1581, 2002, 2424, 2860, 3346, 3814, 4192, 4653]","[354, 831, 1247, 1652, 2068, 2493, 2947, 3413, 3879, 4314, 4725]","[468, 945, 1362, 1765, 2181, 2607, 3061, 3528, 3994, 4430, 4840]","[477, 416, 405, 416, 425, 454, 466, 466, 435, 411]","[289, 764, 1182, 1585, 2002, 2427, 2883, 3350, 3815, 4248, 4654]","[357, 834, 1250, 1654, 2071, 2496, 2950, 3416, 3882, 4317, 4728]","[469, 946, 1362, 1766, 2184, 2610, 3065, 3530, 3996, 4430, 4842]","[477, 416, 404, 417, 425, 454, 466, 466, 435, 411]","[289, 766, 1183, 1587, 2003, 2429, 2883, 3347, 3816, 4248, 4658]","[358, 835, 1251, 1655, 2072, 2497, 2952, 3417, 3883, 4318, 4729]","[472, 950, 1363, 1767, 2185, 2612, 3068, 3533, 3996, 4432, 4844]","[477, 416, 404, 417, 425, 455, 465, 466, 435, 411]","[286, 766, 1186, 1589, 2005, 2431, 2884, 3350, 3816, 4250, 4658]","[359, 836, 1252, 1656, 2073, 2498, 2953, 3418, 3884, 4319, 4730]","[471, 949, 1364, 1771, 2188, 2614, 3069, 3533, 3999, 4434, 4846]","[477, 416, 404, 417, 425, 455, 465, 466, 435, 411]","[291, 769, 1188, 1589, 2008, 2430, 2885, 3351, 3817, 4252, 4661]","[360, 837, 1253, 1657, 2074, 2499, 2954, 3420, 3885, 4320, 4731]","[476, 946, 1366, 1772, 2188, 2616, 3070, 3534, 4001, 4437, 4849]","[477, 416, 404, 417, 425, 455, 466, 465, 435, 411]"
A00054,"[99, 507, 929, 1370, 1793, 2201, 2630, 3127, 3615, 4022, 4429, 4875]","[186, 595, 1021, 1453, 1887, 2296, 2730, 3201, 3673, 4104, 4521, 4937]","[300, 712, 1136, 1569, 2002, 2413, 2847, 3347, 3790, 4221, 4639, -1]","[409, 426, 432, 434, 409, 434, 471, 472, 431, 417, 416]","[118, 524, 951, 1384, 1818, 2228, 2661, 3102, 3603, 4034, 4451, 4867]","[185, 594, 1020, 1452, 1887, 2295, 2728, 3199, 3671, 4103, 4520, 4936]","[303, 712, 1138, 1572, 2005, 2415, 2848, 3347, 3791, 4222, 4642, -1]","[409, 426, 432, 435, 408, 433, 471, 472, 432, 417, 416]","[116, 523, 949, 1381, 1815, 2227, 2659, 3157, 3600, 4030, 4449, 4861]","[201, 581, 1006, 1439, 1901, 2310, 2715, 3214, 3657, 4118, 4535, 4952]","[254, 651, 1093, 1513, 1955, 2344, 2790, 3300, 3713, 4262, 4575, -1]","[380, 425, 433, 462, 409, 405, 499, 443, 461, 417, 417]","[82, 491, 917, 1350, 1770, 2194, 2610, 3098, 3567, 3996, 4416, 4831]","[203, 611, 1037, 1470, 1904, 2313, 2746, 3217, 3689, 4120, 4538, 4953]","[-1, -1, -1, 1672, -1, -1, -1, 3412, 3859, -1, -1, -1]","[408, 426, 433, 434, 409, 433, 471, 472, 431, 418, 415]","[86, 492, 965, 1342, 1789, 2194, 2627, 3126, 3619, 4048, 4407, 4827]","[186, 596, 1022, 1454, 1887, 2296, 2730, 3201, 3673, 4104, 4521, 4938]","[299, 713, 1134, 1568, 2002, 2412, 2774, 3347, 3789, 4220, 4637, 4991]","[410, 426, 432, 433, 409, 434, 471, 472, 431, 417, 417]","[117, 523, 950, 1278, 1725, 2227, 2660, 3160, 3601, 3935, 4450, 4864]","[183, 592, 1017, 1383, 1817, 2294, 2726, 3224, 3667, 4031, 4519, 4934]","[306, 712, 1139, 1447, 1884, 2355, 2848, 3347, 3794, 4098, 4647, -1]","[409, 425, 366, 434, 477, 432, 498, 443, 364, 488, 415]","[-1, 515, 939, 1373, 1809, 2217, 2649, 3082, 3589, 4017, 4437, 4853]","[171, 579, 1006, 1438, 1872, 2281, 2714, 3185, 3657, 4089, 4506, 4921]","[247, 656, 1065, 1517, 1939, 2350, 2792, -1, 3736, 4160, 4581, 4976]","[408, 427, 432, 434, 409, 433, 471, 472, 432, 417, 415]","[103, 511, 938, 1373, 1807, 2212, 2644, 3111, 3590, 4022, 4435, 4852]","[175, 583, 1009, 1442, 1876, 2285, 2718, 3189, 3661, 4093, 4510, 4925]","[300, 709, 1134, 1564, 2002, 2411, 2843, 3343, 3789, 4218, 4640, -1]","[408, 426, 433, 434, 409, 433, 471, 472, 432, 417, 415]","[104, 512, 940, 1375, 1809, 2212, 2646, 3098, 3592, 4023, 4437, 4858]","[181, 589, 1015, 1447, 1882, 2291, 2724, 3195, 3667, 4098, 4515, 4931]","[297, 706, 1132, 1564, 1998, 2408, 2842, 3341, 3786, 4217, 4637, -1]","[408, 426, 432, 435, 409, 433, 471, 472, 431, 417, 416]","[110, 508, 938, 1377, 1805, 2211, 2647, 3106, 3587, 4027, 4438, 4852]","[183, 592, 1018, 1450, 1884, 2293, 2727, 3198, 3669, 4101, 4518, 4934]","[298, 709, 1134, 1567, 2002, 2409, 2843, 3343, 3788, 4218, 4638, -1]","[409, 426, 432, 434, 409, 434, 471, 471, 432, 417, 416]","[114, 513, 952, 1380, 1811, 2211, 2646, 3121, 3588, 4011, 4436, 4851]","[184, 593, 1019, 1452, 1885, 2294, 2728, 3199, 3671, 4102, 4519, 4935]","[301, 711, 1136, 1568, 2002, 2412, 2850, 3346, 3791, 4220, 4639, -1]","[409, 426, 433, 433, 409, 434, 471, 472, 431, 417, 416]","[118, 525, 952, 1382, 1814, 2211, 2664, 3157, 3588, 4028, 4437, 4851]","[185, 594, 1021, 1453, 1887, 2295, 2729, 3228, 3672, 4103, 4521, 4936]","[303, 713, 1138, 1571, 2004, 2414, 2848, 3347, 3791, 4223, 4641, -1]","[409, 427, 432, 434, 408, 434, 499, 444, 431, 418, 415]"
A00056,"[99, 483, 852, 1220, 1586, 1966, 2348, 2723, 3098, 3477, 3866, 4240, 4617]","[170, 552, 923, 1286, 1655, 2037, 2421, 2796, 3168, 3548, 3937, 4311, 4686]","[290, 678, 1038, 1403, 1779, 2157, 2544, 2913, 3292, 3666, 4059, 4408, 4808]","[382, 371, 363, 369, 382, 384, 375, 372, 380, 389, 374, 375]","[91, 476, 847, 1210, 1581, 1960, 2342, 2718, 3091, 3471, 3861, 4235, 4610]","[175, 557, 929, 1292, 1661, 2042, 2426, 2801, 3173, 3553, 3942, 4316, 4691]","[296, 679, 1049, 1415, 1782, 2163, 2547, 2922, 3295, 3674, 4063, 4438, 4813]","[382, 372, 363, 369, 381, 384, 375, 372, 380, 389, 374, 375]","[89, 471, 844, 1207, 1578, 1958, 2339, 2715, 3088, 3469, 3858, 4232, 4607]","[179, 562, 933, 1295, 1664, 2046, 2431, 2806, 3177, 3557, 3947, 4321, 4695]","[300, 679, 1057, 1421, 1784, 2167, 2550, 2929, 3298, 3679, 4069, 4443, 4818]","[383, 371, 362, 369, 382, 385, 375, 371, 380, 390, 374, 374]","[441, 815, 1552, 1930, 2314, 3063, 3442, 4201]","[533, 902, 1635, 2014, 2398, 3148, 3527, 4290]","[594, 968, 1700, 2078, 2469, 3208, 3593, 4353]","[369, 733, 379, 384, 750, 379, 763]","[110, 486, 858, 1226, 1593, 1972, 2354, 2731, 3064, 3484, 3871, 4246, 4586]","[165, 549, 919, 1280, 1649, 2032, 2418, 2792, 3162, 3543, 3934, 4306, 4680]","[229, 662, 978, 1375, 1757, 2137, 2535, 2892, 3269, 3617, 4054, 4390, 4737]","[384, 370, 361, 369, 383, 386, 374, 370, 381, 391, 372, 374]","[90, 473, 846, 1209, 1579, 1959, 2340, 2717, 3090, 3470, 3860, 4234, 4608]","[177, 560, 931, 1294, 1663, 2044, 2429, 2804, 3175, 3555, 3945, 4319, 4693]","[298, 679, 1053, 1417, 1783, 2165, 2548, 2925, 3296, 3676, 4065, 4441, 4815]","[383, 371, 363, 369, 381, 385, 375, 371, 380, 390, 374, 374]","[84, 468, 841, 1199, 1569, 1950, 2333, 2710, 3081, 3461, 3851, 4224, 4599]","[157, 539, 909, 1273, 1643, 2023, 2407, 2782, 3155, 3535, 3924, 4297, 4673]","[273, 651, 1021, 1370, 1758, 2142, 2527, 2838, 3270, 3652, -1, -1, 4784]","[382, 370, 364, 370, 380, 384, 375, 373, 380, 389, 373, 376]","[89, 470, 843, 1205, 1572, 1954, 2338, 2713, 3086, 3465, 3855, 4227, 4601]","[161, 543, 915, 1277, 1646, 2028, 2412, 2787, 3159, 3539, 3928, 4302, 4677]","[282, 667, 1034, 1397, 1769, 2150, 2536, 2908, 3281, 3661, 4054, 4427, 4799]","[382, 372, 362, 369, 382, 384, 375, 372, 380, 389, 374, 375]","[90, 472, 844, 1207, 1577, 1954, 2340, 2713, 3087, 3466, 3856, 4227, 4608]","[164, 546, 917, 1280, 1649, 2031, 2415, 2790, 3162, 3541, 3931, 4305, 4680]","[287, 669, 1038, 1398, 1771, 2152, 2539, 2908, 3283, 3664, 4055, 4429, 4802]","[382, 371, 363, 369, 382, 384, 375, 372, 379, 390, 374, 375]","[94, 476, 848, 1208, 1577, 1960, 2342, 2720, 3089, 3471, 3858, 4230, 4611]","[166, 548, 919, 1282, 1651, 2032, 2417, 2792, 3164, 3544, 3933, 4307, 4682]","[286, 667, 1038, 1401, 1771, 2155, 2536, 2911, 3283, 3667, 4059, 4433, 4800]","[382, 371, 363, 369, 381, 385, 375, 372, 380, 389, 374, 375]","[96, 473, 836, 1209, 1577, 1962, 2345, 2717, 3094, 3470, 3861, 4234, 4610]","[168, 550, 921, 1284, 1654, 2035, 2419, 2794, 3166, 3546, 3935, 4309, 4684]","[296, 678, 1047, 1405, 1778, 2162, 2548, 2920, 3291, 3673, 4058, 4436, 4811]","[382, 371, 363, 370, 381, 384, 375, 372, 380, 389, 374, 375]","[98, 474, 849, 1213, 1582, 1961, 2345, 2717, 3096, 3472, 3863, 4236, 4611]","[171, 553, 924, 1287, 1656, 2037, 2421, 2796, 3169, 3549, 3938, 4311, 4687]","[295, 678, 1045, 1408, 1779, 2162, 2547, 2920, 3294, 3673, 4061, 4437, 4812]","[382, 371, 363, 369, 381, 384, 375, 373, 380, 389, 373, 376]"
A00058,"[107, 484, 853, 1229, 1606, 1982, 2357, 2737, 3116, 3495, 3882, 4264, 4646]","[186, 557, 927, 1299, 1674, 2050, 2426, 2804, 3186, 3569, 3951, 4332, 4717]","[296, 666, 1038, 1410, 1788, 2161, 2534, 2916, 3297, 3679, 4063, 4445, 4826]","[371, 370, 372, 375, 376, 376, 378, 382, 383, 382, 381, 385]","[107, 479, 848, 1220, 1594, 1970, 2345, 2723, 3106, 3491, 3871, 4252, 4636]","[187, 557, 927, 1300, 1674, 2051, 2427, 2805, 3187, 3570, 3951, 4332, 4717]","[299, 669, 1040, 1412, 1787, 2163, 2541, 2918, 3300, 3683, 4066, 4447, 4831]","[370, 370, 373, 374, 377, 376, 378, 382, 383, 381, 381, 385]","[107, 476, 846, 1219, 1593, 1969, 2346, 2722, 3105, 3486, 3870, 4250, 4635]","[188, 558, 928, 1301, 1674, 2051, 2428, 2805, 3187, 3571, 3952, 4333, 4718]","[301, 673, 1042, 1415, 1786, 2166, 2542, 2921, 3305, 3687, 4069, 4448, 4834]","[370, 370, 373, 373, 377, 377, 377, 382, 384, 381, 381, 385]","[139, 520, 880, 1189, 1567, 2006, 2382, 2762, 3142, 3465, 3912, 4294, 4608]","[202, 572, 943, 1315, 1689, 2066, 2442, 2820, 3202, 3585, 3966, 4348, 4732]","[-1, 748, 1104, -1, 1851, -1, -1, -1, -1, -1, -1, -1, -1]","[370, 371, 372, 374, 377, 376, 378, 382, 383, 381, 382, 384]","[122, 491, 861, 1233, 1531, 1921, 2279, 2683, 3120, 3501, 3886, 4192, 4651, 4886]","[182, 553, 926, 1294, 1610, 1986, 2360, 2740, 3185, 3566, 3946, 4267, 4714, 4951]","[256, 620, 993, 1353, 1673, 2049, 2422, 2800, 3258, 3645, 4033, 4330, 4792, -1]","[371, 373, 368, 316, 376, 374, 380, 445, 381, 380, 321, 447, 237]","[107, 478, 848, 1220, 1593, 1970, 2346, 2723, 3105, 3489, 3870, 4252, 4636]","[187, 557, 928, 1300, 1674, 2051, 2428, 2805, 3187, 3570, 3951, 4332, 4718]","[300, 671, 1041, 1413, 1786, 2164, 2541, 2919, 3301, 3684, 4067, 4447, 4832]","[370, 371, 372, 374, 377, 377, 377, 382, 383, 381, 381, 386]","[105, 475, 844, 1216, 1589, 1967, 2342, 2721, 3102, 3485, 3866, 4247, 4632]","[174, 544, 914, 1286, 1660, 2037, 2414, 2791, 3173, 3556, 3937, 4318, 4704]","[291, 659, 1031, 1403, 1777, 2154, 2530, 2907, 3290, 3672, 4056, 4436, 4821]","[370, 370, 372, 374, 377, 377, 377, 382, 383, 381, 381, 386]","[105, 477, 846, 1218, 1590, 1968, 2344, 2721, 3103, 3486, 3868, 4248, 4633]","[177, 547, 918, 1290, 1664, 2041, 2418, 2795, 3177, 3560, 3941, 4322, 4708]","[290, 660, 1030, 1403, 1776, 2154, 2531, 2908, 3291, 3674, 4055, 4436, 4821]","[370, 371, 372, 374, 377, 377, 377, 382, 383, 381, 381, 386]","[107, 477, 847, 1219, 1593, 1970, 2346, 2723, 3104, 3488, 3869, 4251, 4634]","[183, 554, 924, 1296, 1670, 2047, 2424, 2801, 3183, 3566, 3948, 4329, 4714]","[291, 662, 1032, 1404, 1779, 2156, 2533, 2910, 3293, 3676, 4057, 4439, 4824]","[371, 370, 372, 374, 377, 377, 377, 382, 383, 382, 381, 385]","[107, 478, 848, 1220, 1594, 1971, 2346, 2724, 3106, 3489, 3871, 4252, 4636]","[187, 557, 927, 1299, 1674, 2050, 2427, 2804, 3186, 3569, 3951, 4332, 4717]","[294, 665, 1036, 1407, 1782, 2159, 2535, 2913, 3295, 3679, 4060, 4442, 4826]","[370, 370, 372, 375, 376, 377, 377, 382, 383, 382, 381, 385]","[107, 479, 849, 1221, 1594, 1971, 2347, 2724, 3107, 3490, 3871, 4252, 4638]","[187, 557, 928, 1300, 1674, 2051, 2427, 2805, 3187, 3570, 3951, 4332, 4717]","[297, 668, 1038, 1409, 1785, 2161, 2538, 2916, 3298, 3681, 4063, 4444, 4829]","[370, 371, 372, 374, 377, 376, 378, 382, 383, 381, 381, 385]","[108, 480, 850, 1221, 1594, 1972, 2349, 2725, 3107, 3491, 3872, 4253, 4638]","[187, 558, 928, 1300, 1674, 2051, 2428, 2805, 3187, 3570, 3952, 4333, 4718]","[297, 670, 1040, 1410, 1787, 2163, 2540, 2918, 3300, 3683, 4065, 4447, 4832]","[371, 370, 372, 374, 377, 377, 377, 382, 383, 382, 381, 385]"
